t [s],D [m]
0,0.00126240549309639
7.8125e-05,0.00152519862445987
0.00015625,0.00194600576209061
0.000234375,0.0021035940296829
0.0003125,0.00234431811453055
0.000390625,0.00258121224138315
0.00046875,0.00283917343533961
0.000546875,0.00314429761802135
0.000625,0.00336038531244214
0.000703125,0.00358582941046106
0.00078125,0.00373659085939253
0.000859375,0.00387967031888131
0.0009375,0.00401263752504707
0.001015625,0.00412475648472328
0.00109375,0.00424437016207994
0.001171875,0.004357913231519
0.00125,0.00446037136671498
0.001328125,0.00455391356660725
0.00140625,0.00464456984753156
0.001484375,0.00472967200117438
0.0015625,0.00480954627643337
0.001640625,0.00488455425976699
0.00171875,0.00494950575649603
0.001796875,0.00501624754311895
0.001875,0.0050785130718015
0.001953125,0.00513668752467333
0.00203125,0.00519689673323925
0.002109375,0.00524703437342147
0.0021875,0.00530336093331074
0.002265625,0.00536024080066433
0.00234375,0.00540919126110676
0.002421875,0.00545427735397501
0.0025,0.00549770534092401
0.002578125,0.00553726782861791
0.00265625,0.00557639831013866
0.002734375,0.00561046339247936
0.0028125,0.00564131688486597
0.002890625,0.00567322107436692
0.00296875,0.00570322229782202
0.003046875,0.00572719502376346
0.003125,0.00575205317231081
0.003203125,0.00577189532021262
0.00328125,0.00579124503307354
0.003359375,0.00579897448331384
0.0034375,0.00581827365412741
0.003515625,0.00583548715196561
0.00359375,0.00585123562769307
0.003671875,0.00586568588184857
0.00375,0.00587950714768564
0.003828125,0.00589244893108241
0.00390625,0.005904953448364
0.003984375,0.00591516476380239
0.0040625,0.00592480818802549
0.004140625,0.00593413974125407
0.00421875,0.00594318080219894
0.004296875,0.00595307473102269
0.004375,0.00596084409514138
0.004453125,0.0059692658070203
0.00453125,0.00597767184233552
0.004609375,0.00598400062925574
0.0046875,0.00599078489234226
0.004765625,0.00599793313232455
0.00484375,0.00600176980118524
0.004921875,0.00601014256818272
0.005,0.00601313135559205
0.005078125,0.00601993762803389
0.00515625,0.0060235280136533
0.005234375,0.00602796075936803
0.0053125,0.0060321246137487
0.005390625,0.006040346211995
0.00546875,0.0060436798222859
0.005546875,0.00604741053911957
0.005625,0.00605268427448391
0.005703125,0.00605590822898747
0.00578125,0.0060570138597782
0.005859375,0.006062303503854
0.0059375,0.00606400530340828
0.006015625,0.0060662681276545
0.00609375,0.0060668594759434
0.006171875,0.00606832965267079
0.00625,0.00606708800442192
0.006328125,0.00606537532116429
0.00640625,0.0060640737692937
0.006484375,0.00605793284966122
0.0065625,0.00605557430571594
0.006640625,0.00605333681794172
0.00671875,0.00604809714661035
0.006796875,0.00604339806162934
0.006875,0.00604015035682647
0.006953125,0.0060401244915671
0.00703125,0.0060348048862715
0.007109375,0.00603092834064224
0.0071875,0.00602645168433946
0.007265625,0.00602318274656232
0.00734375,0.00601833987317375
0.007421875,0.00601588409121846
0.0075,0.00600924412449089
0.007578125,0.00600516264993999
0.00765625,0.00600080495457169
0.007734375,0.0059974612058857
0.0078125,0.00599442984870395
0.007890625,0.00598885575605091
0.00796875,0.00598356550782526
0.008046875,0.00597903690483075
0.008125,0.00597258340852994
0.008203125,0.00596935031646064
0.00828125,0.00596417084626337
0.008359375,0.00595980007079804
0.0084375,0.00595458568171499
0.008515625,0.00595114671663275
0.00859375,0.00594626448486708
0.008671875,0.00594062359057789
0.00875,0.00593414296572624
0.008828125,0.00592969318688165
0.00890625,0.00592532001142757
0.008984375,0.00591962255355311
0.0090625,0.00591511022821159
0.009140625,0.00591063555110158
0.00921875,0.00590463673740314
0.009296875,0.00590061398009779
0.009375,0.00589440331482266
0.009453125,0.00589036326705137
0.00953125,0.00588304340688196
0.009609375,0.00587771958975484
0.0096875,0.00587406661715986
0.009765625,0.00586805443063242
0.00984375,0.00586095682961935
0.009921875,0.00585962098948085
0.01,0.00585067156659792
0.010078125,0.00584513289056202
0.01015625,0.00584035595765889
0.010234375,0.00583390749139256
0.0103125,0.00582787160790222
0.010390625,0.00582444128677198
0.01046875,0.0058193468541356
0.010546875,0.00581174019345353
0.010625,0.00580695389198909
0.010703125,0.00580333021617207
0.01078125,0.00579790574467441
0.010859375,0.00579025377300793
0.0109375,0.0057839784294067
0.011015625,0.00578163702611531
0.01109375,0.00577558965967887
0.011171875,0.00576908180546602
0.01125,0.00576156358350256
0.011328125,0.00575775272048951
0.01140625,0.00575167633316697
0.011484375,0.00574515412379921
0.0115625,0.00574088506070742
0.011640625,0.00573607005813483
0.01171875,0.00572838324927191
0.011796875,0.00572344789298563
0.011875,0.0057185643917197
0.011953125,0.00571278403016431
0.01203125,0.00570857320407745
0.012109375,0.00570054844325671
0.0121875,0.00569682948748166
0.012265625,0.00568902172842559
0.01234375,0.00568484944324598
0.012421875,0.00568040508356792
0.0125,0.00567392223010298
0.012578125,0.00566814717958465
0.01265625,0.00566275864385438
0.012734375,0.00565450772710314
0.0128125,0.00564977610128962
0.012890625,0.00564478204988565
0.01296875,0.00564033218461705
0.013046875,0.00563543836889733
0.013125,0.00562902579524227
0.013203125,0.00562376662331806
0.01328125,0.00561644026436985
0.013359375,0.00561199769378999
0.0134375,0.00560699343819229
0.013515625,0.00560043789682246
0.01359375,0.00559542989944478
0.013671875,0.00558857131114394
0.01375,0.00558291722890268
0.013828125,0.00557741772901357
0.01390625,0.00557228676017191
0.013984375,0.00556740618560683
0.0140625,0.00556113982017701
0.014140625,0.00555420960461779
0.01421875,0.00554761592779416
0.014296875,0.00554306090717723
0.014375,0.0055394542949671
0.014453125,0.00553393684358779
0.01453125,0.00552643165237559
0.014609375,0.00552076484806562
0.0146875,0.0055156422277553
0.014765625,0.00550912452003023
0.01484375,0.00550314550132167
0.014921875,0.00549774316952581
0.015,0.00549403875975922
0.015078125,0.00548568862526195
0.01515625,0.00548122262201012
0.015234375,0.00547416730554454
0.0153125,0.00547030934119668
0.015390625,0.00546424686023639
0.01546875,0.00545758511091786
0.015546875,0.00545404075770137
0.015625,0.00544700013668133
0.015703125,0.00544002133718657
0.01578125,0.00543552004748912
0.015859375,0.00543061077112899
0.0159375,0.00542537477469452
0.016015625,0.00541833438522927
0.01609375,0.00541368969940643
0.016171875,0.00540621291677443
0.01625,0.00540218028418177
0.016328125,0.00539930024423088
0.01640625,0.00539271634578789
0.016484375,0.00538560607831385
0.0165625,0.00537801807321731
0.016640625,0.00537239799548867
0.01671875,0.00536833198463234
0.016796875,0.00536221779442046
0.016875,0.00535854443906192
0.016953125,0.00535233130487043
0.01703125,0.00534461347803348
0.017109375,0.00534147059067553
0.0171875,0.00533485015320948
0.017265625,0.0053305126924359
0.01734375,0.00532485310661335
0.017421875,0.0053214674897115
0.0175,0.00531323561753575
0.017578125,0.0053068947465439
0.01765625,0.00530151143675408
0.017734375,0.00529691602798484
0.0178125,0.00529166568569017
0.017890625,0.00528639113791833
0.01796875,0.00528039958365005
0.018046875,0.00527155258930253
0.018125,0.00526720905638745
0.018203125,0.00526278143077687
0.01828125,0.00525872112673058
0.018359375,0.00525116670878449
0.0184375,0.00524719818475317
0.018515625,0.00523884942853279
0.01859375,0.00523609258257743
0.018671875,0.00522974581617728
0.01875,0.00522433862049198
0.018828125,0.00521970188255918
0.01890625,0.00521613118139297
0.018984375,0.00520716538774636
0.0190625,0.00520320796155517
0.019140625,0.00519702274689374
0.01921875,0.00519216986860119
0.019296875,0.00518740073391984
0.019375,0.00518164931089066
0.019453125,0.00517644584365478
0.01953125,0.00516911660921102
0.019609375,0.00516375439962891
0.0196875,0.00515893086785617
0.019765625,0.0051540773076744
0.01984375,0.00514825837976811
0.019921875,0.00514064524499867
0.02,0.00513788587499355
0.020078125,0.00513089605052044
0.02015625,0.00512685152270766
0.020234375,0.00511937946374307
0.0203125,0.00511643218691147
0.020390625,0.00510841322382067
0.02046875,0.00510499941224727
0.020546875,0.0050975960276296
0.020625,0.00509132218619813
0.020703125,0.0050888040404361
0.02078125,0.00508321464252053
0.020859375,0.00507599462131932
0.0209375,0.00507083708174222
0.021015625,0.00506480897330554
0.02109375,0.00506135924395263
0.021171875,0.00505645134448957
0.02125,0.00505107762658284
0.021328125,0.00504432961046251
0.02140625,0.00503836058456479
0.021484375,0.0050322999161767
0.0215625,0.0050276395723664
0.021640625,0.00502321474078252
0.02171875,0.0050188393856497
0.021796875,0.0050145129578775
0.021875,0.00500662504499272
0.021953125,0.00500058999402881
0.02203125,0.00499647032733102
0.022109375,0.0049908738905106
0.0221875,0.00498604951693759
0.022265625,0.00497948212978576
0.02234375,0.00497093216398617
0.022421875,0.00496886074391908
0.0225,0.00496445246987882
0.022578125,0.00495951747341504
0.02265625,0.00495421216666427
0.022734375,0.00495055188958625
0.0228125,0.00494252819105073
0.022890625,0.00493685666722263
0.02296875,0.00493050692120566
0.023046875,0.00492847710705136
0.023125,0.00492264294438413
0.023203125,0.00491693369089452
0.02328125,0.00490968532059783
0.023359375,0.00490402594784301
0.0234375,0.00489978812267268
0.023515625,0.00489139966831247
0.02359375,0.00488767703324323
0.023671875,0.00488604210486167
0.02375,0.00487786811448885
0.023828125,0.00487325287447839
0.02390625,0.00487057492252475
0.023984375,0.00486559477105189
0.0240625,0.00485617301735703
0.024140625,0.00485200108044647
0.02421875,0.00484680338970568
0.024296875,0.00483940464180073
0.024375,0.00483275388412595
0.024453125,0.00482875061749224
0.02453125,0.00482426913122171
0.024609375,0.00482081738394475
0.0246875,0.00481561258435734
0.024765625,0.00481044037891367
0.02484375,0.0048018156526993
0.024921875,0.00479785757281837
0.025,0.00479244679005786
0.025078125,0.00478654853295204
0.02515625,0.00478492910557506
0.025234375,0.00478062507205851
0.0253125,0.0047702108275999
0.025390625,0.00476449887959442
0.02546875,0.00476066556531783
0.025546875,0.00475547232814376
0.025625,0.00475303855241745
0.025703125,0.00474609020283917
0.02578125,0.00474230659283189
0.025859375,0.00473158185778017
0.0259375,0.00472770177121412
0.026015625,0.00472424894732125
0.02609375,0.00472201890415411
0.026171875,0.00471517367964844
0.02625,0.00471128213014026
0.026328125,0.00469947022303847
0.02640625,0.00469536788993514
0.026484375,0.00469426038528292
0.0265625,0.00468983251555379
0.026640625,0.00468380459267974
0.02671875,0.00467922889079614
0.026796875,0.00466997059333909
0.026875,0.0046664360919145
0.026953125,0.00466255442625492
0.02703125,0.00465810726456016
0.027109375,0.00464905132810524
0.0271875,0.00464847979592294
0.027265625,0.00464235399170687
0.02734375,0.00463828939705919
