t [s],D [m]
0,0.00129714807486788
7.8125e-05,0.00192369724451448
0.00015625,0.00237205006013167
0.000234375,0.00289766606627199
0.0003125,0.00325002065293222
0.000390625,0.00355003672248537
0.00046875,0.00386128382976689
0.000546875,0.004146097921519
0.000625,0.00435902742881045
0.000703125,0.00455753050483237
0.00078125,0.00474022080098717
0.000859375,0.0049068482927899
0.0009375,0.00506736387444236
0.001015625,0.00520703150097148
0.00109375,0.00533733358888179
0.001171875,0.00546240994201209
0.00125,0.00557475898685959
0.001328125,0.00568471432174432
0.00140625,0.00578336902149407
0.001484375,0.0058781549025269
0.0015625,0.00596215086059078
0.001640625,0.00604344565155979
0.00171875,0.00611947701494075
0.001796875,0.0061878873218559
0.001875,0.0062567695940569
0.001953125,0.00631842836361242
0.00203125,0.00637526041309634
0.002109375,0.0064296563953722
0.0021875,0.00648182756931949
0.002265625,0.00653193777516195
0.00234375,0.00657646440826385
0.002421875,0.00661743831276063
0.0025,0.00665971542610735
0.002578125,0.00669954534688453
0.00265625,0.00673232640253601
0.002734375,0.00676491469844749
0.0028125,0.00679526538958357
0.002890625,0.00682567059950069
0.00296875,0.00685102067515477
0.003046875,0.00687641322518449
0.003125,0.00689780581913277
0.003203125,0.00691806563307247
0.00328125,0.00693942288372931
0.003359375,0.00695803052715928
0.0034375,0.00697413048666097
0.003515625,0.00699536906716475
0.00359375,0.00700658115259994
0.003671875,0.00702367706617953
0.00375,0.0070346903164356
0.003828125,0.00704665962520787
0.00390625,0.00705947063544445
0.003984375,0.00707010783642538
0.0040625,0.00708063778386924
0.004140625,0.00709945467212481
0.00421875,0.00710664843041617
0.004296875,0.00711040830913909
0.004375,0.00712236782528983
0.004453125,0.00712958211011387
0.00453125,0.0071419078105546
0.004609375,0.00714198041255078
0.0046875,0.00715021548317021
0.004765625,0.00715492071422306
0.00484375,0.00716339564649042
0.004921875,0.0071678199779129
0.005,0.00717231345931017
0.005078125,0.00717644359074662
0.00515625,0.00717981903772094
0.005234375,0.00718881004648937
0.0053125,0.00719088432171578
0.005390625,0.00719580358943445
0.00546875,0.00719736724440609
0.005546875,0.00720175577010713
0.005625,0.00720564499272486
0.005703125,0.00720503613897046
0.00578125,0.00721346590667763
0.005859375,0.00721483536723906
0.0059375,0.00721997718716443
0.006015625,0.00721950994615552
0.00609375,0.0072279648162202
0.006171875,0.00722720136153613
0.00625,0.00723576316152686
0.006328125,0.00723397854067024
0.00640625,0.00723651685843682
0.006484375,0.00724311465347716
0.0065625,0.00724437492377129
0.006640625,0.00724454838130074
0.00671875,0.0072507249424315
0.006796875,0.00724633954421103
0.006875,0.00725501998255288
0.006953125,0.00725549920462255
0.00703125,0.00725902028891768
0.007109375,0.00725523236977163
0.0071875,0.00725731327744228
0.007265625,0.00725502300808993
0.00734375,0.00725632046808526
0.007421875,0.00725735686199355
0.0075,0.00725145607382732
0.007578125,0.00725253010575243
0.00765625,0.00725344154736254
0.007734375,0.00724891032045166
0.0078125,0.00723041634317671
0.007890625,0.00720661827416888
0.00796875,0.00720548949366184
0.008046875,0.00718093190910754
0.008125,0.00721800152561341
0.008203125,0.00719083570790775
0.00828125,0.00719979897731539
0.008359375,0.00717169306336613
0.0084375,0.00717257919860956
0.008515625,0.00715127748255
0.00859375,0.0071829043139516
0.008671875,0.007005830614981
0.00875,0.00698850627812321
0.008828125,0.00716256882898719
0.00890625,0.0069788345124056
0.008984375,0.0071285704260637
0.0090625,0.00699117662865671
0.009140625,0.0069701564731872
0.00921875,0.00698095881935406
0.009296875,0.00697682781163555
0.009375,0.00698208105569279
0.009453125,0.00698672058731582
0.00953125,0.00697851932265205
0.009609375,0.0069876062318599
0.0096875,0.00714980457319139
0.009765625,0.0069838495131134
0.00984375,0.00697956241252157
0.009921875,0.00700413440011231
0.01,0.00698141642136044
0.010078125,0.00698872819680214
0.01015625,0.00698254005067835
0.010234375,0.00698365391210305
0.0103125,0.00701327119006951
0.010390625,0.00697735217761202
0.01046875,0.00699421932033038
0.010546875,0.006982729123398
0.010625,0.00699393266151122
0.010703125,0.0069659875325883
0.01078125,0.00698505059493011
0.010859375,0.00698538929222188
0.0109375,0.0069762720354901
0.011015625,0.00698827588137084
0.01109375,0.00696919370096263
0.011171875,0.00699932403373522
0.01125,0.00698309355353033
0.011328125,0.00699900026548696
0.01140625,0.00699897040916087
0.011484375,0.00698423163182651
0.0115625,0.00697703506416322
0.011640625,0.00700024609225248
0.01171875,0.00700310853041713
0.011796875,0.0069701367490051
0.011875,0.0069908608264384
0.011953125,0.00698212873910092
0.01203125,0.00699428303714998
0.012109375,0.00699126480417421
0.0121875,0.00699623041898078
0.012265625,0.00698705060646952
0.01234375,0.00699113013022882
0.012421875,0.00698550598271886
0.0125,0.00698253722873155
0.012578125,0.00699745183180814
0.01265625,0.00698673537500876
0.012734375,0.00699946399962635
0.0128125,0.00698562098224821
0.012890625,0.0070061834815416
0.01296875,0.00699435811490023
0.013046875,0.00699709684459003
0.013125,0.00697906131070323
0.013203125,0.00698616656577293
0.01328125,0.00697105935360489
0.013359375,0.00700585195223454
0.0134375,0.00698485263393445
0.013515625,0.00697300298533984
0.01359375,0.00698785446931362
0.013671875,0.00697059965884992
0.01375,0.00701527130974359
0.013828125,0.00699063118618364
0.01390625,0.00697538672925245
0.013984375,0.00698000996462717
0.0140625,0.00697743261573897
0.014140625,0.00699239961288221
0.01421875,0.00697025824047544
0.014296875,0.0069936618554241
0.014375,0.0069817382602207
0.014453125,0.00700927146882884
0.01453125,0.00699107041073911
0.014609375,0.00699805876160736
0.0146875,0.00699249910964277
0.014765625,0.0069734539784064
0.01484375,0.00698719675469535
0.014921875,0.00696439770158345
0.015,0.00698297087831015
0.015078125,0.00698232608679602
0.01515625,0.00700514901792365
0.015234375,0.00697906985632505
0.0153125,0.00701254211482513
0.015390625,0.00698034935151365
0.01546875,0.00699154381139106
0.015546875,0.00699141139311853
0.015625,0.00699262961960432
0.015703125,0.00699096207375949
0.01578125,0.00697461526348508
0.015859375,0.0070049818621002
0.0159375,0.00695280334153845
0.016015625,0.0069824369969957
0.01609375,0.00697694776462685
0.016171875,0.00697100598076145
0.01625,0.00696773524619919
0.016328125,0.00697818938073746
0.01640625,0.0070057787062467
0.016484375,0.00698439301212959
0.0165625,0.00698405021436708
0.016640625,0.00695270603828921
0.01671875,0.00699137288169409
0.016796875,0.00695924833734693
0.016875,0.00700495626196549
0.016953125,0.00696709508977172
0.01703125,0.0069890931693013
0.017109375,0.00698279692633763
0.0171875,0.00698959467193949
0.017265625,0.0069958488317356
0.01734375,0.00698476063150648
0.017421875,0.00698501582400525
0.0175,0.00696819430804407
0.017578125,0.00702620678843507
0.01765625,0.00698464661236017
0.017734375,0.00699747033299449
0.0178125,0.00699967604610403
0.017890625,0.00698702830841673
0.01796875,0.00700021398402672
0.018046875,0.00696734607475963
0.018125,0.00699412062603456
0.018203125,0.00694028557852696
0.01828125,0.00698897961358653
0.018359375,0.00698430567958031
0.0184375,0.00699263476856309
0.018515625,0.0069710438172636
0.01859375,0.00697668773939508
0.018671875,0.00694781227745754
0.01875,0.00697232190780454
0.018828125,0.00697303417254714
0.01890625,0.00696852560301458
0.018984375,0.00697321910914188
0.0190625,0.00696819060310227
0.019140625,0.00699454665542666
0.01921875,0.00695971757435881
0.019296875,0.0070023116760996
0.019375,0.00697393976248962
0.019453125,0.00693535490133453
0.01953125,0.00698274041885445
0.019609375,0.00698080717536369
0.0196875,0.00698239673306545
0.019765625,0.00699199623019799
0.01984375,0.00700865636523939
0.019921875,0.00697423876618876
0.02,0.0069910634401102
0.020078125,0.00697433082709443
0.02015625,0.00698652573803083
0.020234375,0.006986645449406
0.0203125,0.00696746587012275
0.020390625,0.0069865108638909
0.02046875,0.00696330403930263
0.020546875,0.00698508424919124
0.020625,0.00696542143093216
0.020703125,0.00701093218309439
0.02078125,0.00695687136803055
0.020859375,0.0069969384431862
0.0209375,0.00699775573093333
0.021015625,0.00694232765170586
0.02109375,0.00697778412583953
0.021171875,0.00697036658901507
0.02125,0.00698405596022781
0.021328125,0.00697941113377746
0.02140625,0.00697656164277974
0.021484375,0.00697707567639433
0.0215625,0.00696777308733674
0.021640625,0.00698732627801953
0.02171875,0.00697835170027063
0.021796875,0.00699963249748071
0.021875,0.00697276752603745
0.021953125,0.00699944039224715
0.02203125,0.00695208934636985
0.022109375,0.00698301157068984
0.0221875,0.00698601527128243
0.022265625,0.00699369583919453
0.02234375,0.00697098588975145
0.022421875,0.00696300110074936
0.0225,0.00698670593207587
0.022578125,0.0069764688481063
0.02265625,0.00699142708813889
0.022734375,0.00696204356741381
0.0228125,0.0069737986211745
0.022890625,0.00696985515071978
0.02296875,0.00700024545993932
0.023046875,0.0069926720467279
0.023125,0.0069840826584686
0.023203125,0.00697944772692333
0.02328125,0.00691403498559854
0.023359375,0.00699134323084784
0.0234375,0.00694064935450872
0.023515625,0.00698817425285484
0.02359375,0.00697158131604899
0.023671875,0.00697569845994486
0.02375,0.00693897197477257
0.023828125,0.0069554879415743
0.02390625,0.00699748736276277
0.023984375,0.00699134002093125
0.0240625,0.00695991432490038
0.024140625,0.00698683802687306
0.02421875,0.00701373478999444
0.024296875,0.00692270394033359
0.024375,0.00698951699046104
0.024453125,0.00695895049793694
0.02453125,0.0069661062993373
0.024609375,0.00696285727150372
0.0246875,0.00696906691742418
0.024765625,0.00700124400087947
0.02484375,0.00693526926905943
0.024921875,0.00700614070295465
0.025,0.00697397117500002
0.025078125,0.0070171067941611
0.02515625,0.0069832767538101
0.025234375,0.00700644853210727
0.0253125,0.00697205240708417
0.025390625,0.0069729145187984
0.02546875,0.00694687922406723
0.025546875,0.00694860805081564
0.025625,0.00699363543603332
0.025703125,0.00696882886276626
0.02578125,0.00698753223408764
0.025859375,0.00693666638236322
0.0259375,0.00691020747318247
0.026015625,0.00698431700327161
0.02609375,0.0069868875860727
0.026171875,0.00697626280434579
0.02625,0.00700948165775646
0.026328125,0.00697446114846231
0.02640625,0.00694399259472517
0.026484375,0.00698915391922927
0.0265625,0.00693973305603052
0.026640625,0.00696467442996258
0.02671875,0.00697938590663708
0.026796875,0.006998834069869
0.026875,0.00695980272589235
0.026953125,0.00696317971221146
0.02703125,0.00697012251609248
0.027109375,0.00696180708160571
0.0271875,0.00696440378389145
0.027265625,0.00694710977340331
0.02734375,0.00698840195822085
