t [s],D [m]
0,0.00128780781866245
7.8125e-05,0.00196493171848672
0.00015625,0.0020515173618284
0.000234375,0.00212667044786845
0.0003125,0.00234134345263595
0.000390625,0.00260101008025352
0.00046875,0.00286776586903323
0.000546875,0.00316741918550273
0.000625,0.00372619930754293
0.000703125,0.00397565838514324
0.00078125,0.00417084773804371
0.000859375,0.00434053957915725
0.0009375,0.00450190153902397
0.001015625,0.00464683365201136
0.00109375,0.004785772441762
0.001171875,0.0049147493258769
0.00125,0.00503651515205984
0.001328125,0.00514884189373817
0.00140625,0.00525032939302852
0.001484375,0.00535179808318479
0.0015625,0.0054430890168519
0.001640625,0.00553087572360389
0.00171875,0.00560766232951535
0.001796875,0.0056882645425203
0.001875,0.00575884003745651
0.001953125,0.00581205716965185
0.00203125,0.00586983447647532
0.002109375,0.00592815384381089
0.0021875,0.00598403527813288
0.002265625,0.00603487338909909
0.00234375,0.00608650384937035
0.002421875,0.0061344184732876
0.0025,0.00617649148858852
0.002578125,0.00621593166193275
0.00265625,0.00625029583204102
0.002734375,0.00628393594473929
0.0028125,0.00631494547833124
0.002890625,0.00634544434595591
0.00296875,0.00637031912030942
0.003046875,0.00639171164186178
0.003125,0.0064158646474219
0.003203125,0.00643368139714367
0.00328125,0.00645470339126671
0.003359375,0.00646630816564889
0.0034375,0.00649131409330434
0.003515625,0.0065065621494247
0.00359375,0.00652427518589039
0.003671875,0.00654529207793088
0.00375,0.00656472685703085
0.003828125,0.00657622250954244
0.00390625,0.00659179132249009
0.003984375,0.00660505870564623
0.0040625,0.00661465616089088
0.004140625,0.00662557993216799
0.00421875,0.00663396480976489
0.004296875,0.00664181973572869
0.004375,0.00665013822419416
0.004453125,0.00665712311792737
0.00453125,0.0066605636857239
0.004609375,0.00666949753700829
0.0046875,0.00667609679454811
0.004765625,0.0066836814806624
0.00484375,0.00668621001632212
0.004921875,0.00668968820023125
0.005,0.00668953545190856
0.005078125,0.00669372983285117
0.00515625,0.00669371487080466
0.005234375,0.00669557477173877
0.0053125,0.00669477886994497
0.005390625,0.00669573815691191
0.00546875,0.00669299392705114
0.005546875,0.00669429713455452
0.005625,0.00669427383629614
0.005703125,0.00669821760278895
0.00578125,0.00669679255060934
0.005859375,0.00669599807891137
0.0059375,0.00669228945847431
0.006015625,0.00668749225572157
0.00609375,0.00668279371065355
0.006171875,0.00668025039096715
0.00625,0.00667572484354051
0.006328125,0.00667370263224437
0.00640625,0.00665827303709562
0.006484375,0.0066599445629435
0.0065625,0.006650389675158
0.006640625,0.00665185950594039
0.00671875,0.00664104311378297
0.006796875,0.00663367770369704
0.006875,0.00662653899961509
0.006953125,0.00662107441252866
0.00703125,0.00661568365869449
0.007109375,0.00661290877509027
0.0071875,0.00660690888811572
0.007265625,0.00659954934216279
0.00734375,0.00659180515664446
0.007421875,0.0065861892714842
0.0075,0.00657947891408089
0.007578125,0.00657621234520349
0.00765625,0.00656505432540789
0.007734375,0.00655866379816293
0.0078125,0.00656184279263879
0.007890625,0.0065557740404314
0.00796875,0.00653960307534586
0.008046875,0.00653786385287129
0.008125,0.00653261281031601
0.008203125,0.00652166627313655
0.00828125,0.00651580204639021
0.008359375,0.00650880394626455
0.0084375,0.00649814056631058
0.008515625,0.00649293900305851
0.00859375,0.00648581806598386
0.008671875,0.0064822486873736
0.00875,0.00647114069539619
0.008828125,0.0064664729990709
0.00890625,0.00645909464790721
0.008984375,0.00645000827501612
0.0090625,0.00645163152727406
0.009140625,0.0064270344919023
0.00921875,0.0064258877936539
0.009296875,0.00641890485255252
0.009375,0.0064187104972449
0.009453125,0.00639934725279416
0.00953125,0.00639702184816636
0.009609375,0.00638576768409643
0.0096875,0.00638258150982497
0.009765625,0.00637462869387916
0.00984375,0.00637101920053277
0.009921875,0.00636195092913347
0.01,0.00635949284792101
0.010078125,0.00634753055414674
0.01015625,0.00633929891549462
0.010234375,0.00632856831790634
0.0103125,0.00632686440148156
0.010390625,0.00631428702473027
0.01046875,0.00630771804056031
0.010546875,0.00629582398676873
0.010625,0.00628903976783931
0.010703125,0.0062851245764166
0.01078125,0.00627853895006504
0.010859375,0.00626883307211167
0.0109375,0.00625287323801205
0.011015625,0.00624839240155945
0.01109375,0.0062396727140304
0.011171875,0.00622781395394765
0.01125,0.00622286919805876
0.011328125,0.00621759926818927
0.01140625,0.00621534722710368
0.011484375,0.00620415123260414
0.0115625,0.00619657984177742
0.011640625,0.0061933737910996
0.01171875,0.00618463982932485
0.011796875,0.00617121425477692
0.011875,0.00617005300805372
0.011953125,0.00616108678254764
0.01203125,0.00614942590039543
0.012109375,0.00614252133478363
0.0121875,0.00613682906221903
0.012265625,0.00613066286505727
0.01234375,0.00612459093433923
0.012421875,0.00611616435287398
0.0125,0.00611400991021504
0.012578125,0.00610728044875611
0.01265625,0.00609723899951268
0.012734375,0.00609125467085354
0.0128125,0.00607773746200636
0.012890625,0.00607345837711723
0.01296875,0.00606826389623588
0.013046875,0.00605814584108841
0.013125,0.0060590322447149
0.013203125,0.00604560788365259
0.01328125,0.00604375555550199
0.013359375,0.00603210790996475
0.0134375,0.00602506528104912
0.013515625,0.00601891249464922
0.01359375,0.00600196197612545
0.013671875,0.00599853257777296
0.01375,0.00598662645974823
0.013828125,0.005983182247
0.01390625,0.00597693091007939
0.013984375,0.0059747499291976
0.0140625,0.00596264248708152
0.014140625,0.00595610825662669
0.01421875,0.00593995306456829
0.014296875,0.00593643969094543
0.014375,0.00593700173297507
0.014453125,0.00593196664954189
0.01453125,0.00590925182022598
0.014609375,0.00590636666320515
0.0146875,0.00590071692320837
0.014765625,0.0058958523897739
0.01484375,0.00589104134598941
0.014921875,0.00588247834936095
0.015,0.0058781038953239
0.015078125,0.00586807507442319
0.01515625,0.00585541833298271
0.015234375,0.0058460222412186
0.0153125,0.0058379470184657
0.015390625,0.00584322887894612
0.01546875,0.00582853168775443
0.015546875,0.00582219912186353
0.015625,0.00580687415404857
0.015703125,0.00580298474524815
0.01578125,0.00578125639355746
0.015859375,0.00578260229114883
0.0159375,0.00577088419708735
0.016015625,0.00577827592346011
0.01609375,0.00576107109276752
0.016171875,0.00576787108449767
0.01625,0.00574445234888569
0.016328125,0.00573901371993249
0.01640625,0.00575571911422692
0.016484375,0.00574361636432864
0.0165625,0.00572365465023251
0.016640625,0.00571693304104711
0.01671875,0.00571621963135281
0.016796875,0.00569843941950584
0.016875,0.0056967581492552
0.016953125,0.00569017674710035
0.01703125,0.00568704610004919
0.017109375,0.00566706212115119
0.0171875,0.00567321677394866
0.017265625,0.00567112442604069
0.01734375,0.00564435592073651
0.017421875,0.00564118859723107
0.0175,0.00563615281518223
0.017578125,0.00562371269286727
0.01765625,0.00562379439148501
0.017734375,0.0056101628380618
0.0178125,0.00560415506404374
0.017890625,0.00559107317730524
0.01796875,0.00559704184176613
0.018046875,0.00559112110509855
0.018125,0.00556693135365522
0.018203125,0.0055722891578301
0.01828125,0.00557074532805415
0.018359375,0.00555826737768857
0.0184375,0.00554807933848215
0.018515625,0.00553761273102957
0.01859375,0.00553895494182052
0.018671875,0.00552886274021485
0.01875,0.00551719009294407
0.018828125,0.00551771448267066
0.01890625,0.00548820924635208
0.018984375,0.00548580533209935
0.0190625,0.00549138650475144
0.019140625,0.00549330809516358
0.01921875,0.0054877575437954
0.019296875,0.00548487974684697
0.019375,0.00546470611054065
0.019453125,0.00544999688620933
0.01953125,0.00543260593515743
0.019609375,0.00544203605946484
0.0196875,0.00542897308686017
0.019765625,0.0054410274839919
0.01984375,0.0054250924476931
0.019921875,0.00541515715682702
0.02,0.00541395069394086
0.020078125,0.00539440288985089
0.02015625,0.00539568961311002
0.020234375,0.00538065649813269
0.0203125,0.0053973605049298
0.020390625,0.00537693091493229
0.02046875,0.00537325154314893
0.020546875,0.00535312841020377
0.020625,0.00535902358621206
0.020703125,0.005336446870343
0.02078125,0.00534838481228602
0.020859375,0.00533377047751466
0.0209375,0.00533488494955866
0.021015625,0.0053247971754783
0.02109375,0.00530865611945287
0.021171875,0.00530850006986092
0.02125,0.00528315689028762
0.021328125,0.00528499211845157
0.02140625,0.00528405792359599
0.021484375,0.00527999574288731
0.0215625,0.00527514037073317
0.021640625,0.00526236735500822
0.02171875,0.00525333118220916
0.021796875,0.00522842017558214
0.021875,0.00524361945664977
0.021953125,0.00522631014883347
0.02203125,0.00522309689818702
0.022109375,0.00521809683985783
0.0221875,0.00519914745545162
0.022265625,0.00520526823675641
0.02234375,0.00519713821962066
0.022421875,0.00518981191469407
0.0225,0.00517170215799773
0.022578125,0.0051720274005687
0.02265625,0.00515526424067105
0.022734375,0.00515434520206296
0.0228125,0.00516651494033867
0.022890625,0.00514739497607157
0.02296875,0.00515240530964921
0.023046875,0.00514144671054983
0.023125,0.00510114065412923
0.023203125,0.00510288636863337
0.02328125,0.00509610068014317
0.023359375,0.00508760146783081
0.0234375,0.00507017372668888
0.023515625,0.00512078526408875
0.02359375,0.00507789836704801
0.023671875,0.00507759849491791
0.02375,0.00504368688379731
0.023828125,0.00505827496816947
0.02390625,0.00503101751661702
0.023984375,0.00502740488981049
0.0240625,0.00503579533364588
0.024140625,0.00501223510122732
0.02421875,0.00504366637546898
0.024296875,0.00500623860192744
0.024375,0.0049861584162342
0.024453125,0.00501695305186328
0.02453125,0.00497757679596892
0.024609375,0.004979607343023
0.0246875,0.00497116359532218
0.024765625,0.00497499492752592
0.02484375,0.00496939856487842
0.024921875,0.0049658226841074
0.025,0.00494972474957015
0.025078125,0.0049463353334022
0.02515625,0.00495090755261833
0.025234375,0.00492359062644817
0.0253125,0.00491774963778297
0.025390625,0.00493120933701594
0.02546875,0.00491812569713411
0.025546875,0.00492650643371007
0.025625,0.00491296689089385
0.025703125,0.00491043769745842
0.02578125,0.00490696272541446
0.025859375,0.00488589743092111
0.0259375,0.00489158348870366
0.026015625,0.00488308960655474
0.02609375,0.0048742440948777
0.026171875,0.00487179774341421
0.02625,0.00486301747776662
0.026328125,0.00485872601217987
0.02640625,0.0048613220591791
0.026484375,0.00484325309593853
0.0265625,0.00481710807855409
0.026640625,0.00483423614646525
0.02671875,0.00481732756295786
0.026796875,0.00481541966581182
0.026875,0.00479997637977855
0.026953125,0.00480542429337495
0.02703125,0.00480691207080615
0.027109375,0.00478173165618285
0.0271875,0.00477032635466317
0.027265625,0.00477850172349633
0.02734375,0.00475520856293215
