t [s],D [m]
0,0.00172879128155798
7.8125e-05,0.00234239298637447
0.00015625,0.00297461538642773
0.000234375,0.0033091479549229
0.0003125,0.00362510433851499
0.000390625,0.00390389488913115
0.00046875,0.00414565213626315
0.000546875,0.0043499679382398
0.000625,0.00453595786252678
0.000703125,0.00470311459756879
0.00078125,0.00483362435279035
0.000859375,0.00496344349102327
0.0009375,0.00507509024789489
0.001015625,0.00516802084766297
0.00109375,0.00526082865012736
0.001171875,0.00533517535980569
0.00125,0.00540964198215734
0.001328125,0.00546540100552517
0.00140625,0.00550257374647491
0.001484375,0.00555821638876729
0.0015625,0.00557691936503931
0.001640625,0.00561409224084415
0.00171875,0.00563256367859906
0.001796875,0.00565139508020907
0.001875,0.00566985163525144
0.001953125,0.00568843812115199
0.00203125,0.00572588267372128
0.002109375,0.00572561112398387
0.0021875,0.00572561112398387
0.002265625,0.00572561112398387
0.00234375,0.00572573935740917
0.002421875,0.00572573935740917
0.0025,0.00574432545922367
0.002578125,0.00572573935740917
0.00265625,0.00572573935740917
0.002734375,0.00572561112398387
0.0028125,0.00570702461742982
0.002890625,0.00570702461742982
0.00296875,0.00568871144533707
0.003046875,0.00566985163525144
0.003125,0.00566998112974461
0.003203125,0.00563280904406723
0.00328125,0.00563295472475706
0.003359375,0.00561409224084415
0.0034375,0.00559563701249853
0.003515625,0.00559550579749025
0.00359375,0.00557719815447543
0.003671875,0.00555846503612405
0.00375,0.00555861266522958
0.003828125,0.00552129311605857
0.00390625,0.00552116013420543
0.003984375,0.00550270717749831
0.0040625,0.0054841212534471
0.004140625,0.00546553534405295
0.00421875,0.00546553534405295
0.004296875,0.00544681465254146
0.004375,0.00542836356983804
0.004453125,0.00540952222359457
0.00453125,0.00540952222359457
0.004609375,0.00537260602226208
0.0046875,0.00535388306739234
0.004765625,0.00535376206155584
0.00484375,0.00533543440155813
0.004921875,0.00531684861499895
0.005,0.00529826284452418
0.005078125,0.00527941531274303
0.00515625,0.00526095179350245
0.005234375,0.00526095179350245
0.0053125,0.00522377937482016
0.005390625,0.00522391992690288
0.00546875,0.00520533423944683
0.005546875,0.00520506872297622
0.005625,0.00516816291614105
0.005703125,0.00514930888916921
0.00578125,0.00503778951398557
0.005859375,0.00503767806216396
0.0059375,0.00500089285074458
0.006015625,0.00498230738179103
0.00609375,0.00494485701485174
0.006171875,0.00492671765754119
0.00625,0.00490813289883246
0.006328125,0.00490813289883246
0.00640625,0.00488938033468461
0.006484375,0.00488954816536639
0.0065625,0.00487096345743193
0.006640625,0.0048897336557338
0.00671875,0.00483379411933578
0.006796875,0.00485237877532244
0.006875,0.00483347245135332
0.006953125,0.00483362435279035
0.00703125,0.00485205833941287
0.007109375,0.00483322225034405
0.0071875,0.00481503906798029
0.007265625,0.00481503906798029
0.00734375,0.00479630072617758
0.007421875,0.00479616565272467
0.0075,0.00477771488945775
0.007578125,0.00477771488945775
0.00765625,0.00477786856357966
0.007734375,0.00479616565272467
0.0078125,0.00475899294176491
0.007890625,0.00475899294176491
0.00796875,0.00474040660655908
0.008046875,0.004721957485214
0.008125,0.0047218202850821
0.008203125,0.004721957485214
0.00828125,0.004721957485214
0.008359375,0.00470337171980222
0.0084375,0.00468464768396829
0.008515625,0.00468464768396829
0.00859375,0.00466620024427351
0.008671875,0.00464761453459882
0.00875,0.00464761453459882
0.008828125,0.00462918745397394
0.00890625,0.00462902884395131
0.008984375,0.00462902884395131
0.0090625,0.0045917164331549
0.009140625,0.00459185752066203
0.00921875,0.00459185752066203
0.009296875,0.00459159415380865
0.009375,0.0045731302275917
0.009453125,0.00455468627629169
0.00953125,0.00455468627629169
0.009609375,0.00453595786252678
0.0096875,0.00453610068430741
0.009765625,0.00453595786252678
0.00984375,0.00451767763792062
0.009921875,0.00449909275850459
0.01,0.00449892956198827
0.010078125,0.00446148747683676
0.01015625,0.00449878556014578
0.010234375,0.004480691051243
0.0103125,0.0044619230796416
0.010390625,0.00446148747683676
0.01046875,0.00442458757119848
0.010546875,0.00444302722754832
0.010625,0.00442431424725158
0.010703125,0.00444317303650122
0.01078125,0.0044060021279477
0.010859375,0.00440585508884756
0.0109375,0.0044060021279477
0.011015625,0.00436868301854969
0.01109375,0.00438714106729516
0.011171875,0.00438741670702913
0.01125,0.00436868301854969
0.011328125,0.00436868301854969
0.01140625,0.00433151101841575
0.011484375,0.00429448994756742
0.0115625,0.00435024593333353
0.011640625,0.00429448994756742
0.01171875,0.00429466091276763
0.011796875,0.00427607637507459
0.011875,0.00429466091276763
0.011953125,0.00427590466680147
0.01203125,0.00427590466680147
0.012109375,0.00427590466680147
0.0121875,0.00423844886987292
0.012265625,0.00423858133716247
0.01234375,0.00422014897239468
0.012421875,0.00421999545753881
0.0125,0.00421999545753881
0.012578125,0.00421986240681295
0.01265625,0.00420140959737531
0.012734375,0.00420140959737531
0.0128125,0.00420156379131307
0.012890625,0.00422014897239468
0.01296875,0.00418297863598481
0.013046875,0.00418297863598481
0.013125,0.00418297863598481
0.013203125,0.00418297863598481
0.01328125,0.00416410310419062
0.013359375,0.00418297863598481
0.0134375,0.00416439350675469
0.013515625,0.00412706635658123
0.01359375,0.00414598550025871
0.013671875,0.00412706635658123
0.01375,0.00412706635658123
0.013828125,0.0041086382791948
0.01390625,0.00410848059770386
0.013984375,0.00408989485991469
0.0140625,0.00410834393551637
0.014140625,0.00408989485991469
0.01421875,0.00408975757667146
0.014296875,0.004071468264585
0.014375,0.00405272344876143
0.014453125,0.00405272344876143
0.01453125,0.00405258490631914
0.014609375,0.00405288329954076
0.0146875,0.00405258490631914
0.014765625,0.00403413777599097
0.01484375,0.00401541230054425
0.014921875,0.00401541230054425
0.015,0.0040155521254962
0.015078125,0.00399696649758786
0.01515625,0.0040155521254962
0.015234375,0.00399682602243641
0.0153125,0.0040155521254962
0.015390625,0.00399696649758786
0.01546875,0.00399682602243641
0.015546875,0.00399682602243641
0.015625,0.00399682602243641
0.015703125,0.00397838089258251
0.01578125,0.00395979531080262
0.015859375,0.00395979531080262
0.0159375,0.00395979531080262
0.016015625,0.00395979531080262
0.01609375,0.00395979531080262
0.016171875,0.00394106729003596
0.01625,0.00392262421823978
0.016328125,0.00392262421823978
0.01640625,0.00392262421823978
0.016484375,0.0039040387081328
0.0165625,0.0039040387081328
0.016640625,0.0039040387081328
0.01671875,0.0040155521254962
0.016796875,0.00388545322260355
0.016875,0.00388545322260355
0.016953125,0.00388545322260355
0.01703125,0.0038668677620064
0.017109375,0.00399696649758786
0.0171875,0.00384828232670259
0.017265625,0.00399696649758786
0.01734375,0.00382969691706037
0.017421875,0.00397838089258251
0.0175,0.00381096420754906
0.017578125,0.00381111153345516
0.01765625,0.00395995891279318
0.017734375,0.00379237812836172
0.0178125,0.00379237812836172
0.017890625,0.00379225285254057
0.01796875,0.00377366617604439
0.018046875,0.00377379206887391
0.018125,0.00377366617604439
0.018203125,0.00375520602937815
0.01828125,0.00375520602937815
0.018359375,0.00375520602937815
0.0184375,0.00375507951343295
0.018515625,0.00375507951343295
0.01859375,0.00371803401156202
0.018671875,0.00371818501964963
0.01875,0.0037179062306973
0.018828125,0.00371780167945042
0.01890625,0.0037179062306973
0.018984375,0.0037179062306973
0.0190625,0.0037179062306973
0.019140625,0.0037179062306973
0.01921875,0.0037179062306973
0.019296875,0.00369931961100002
0.019375,0.00369931961100002
0.019453125,0.00369944803385634
0.01953125,0.0037179062306973
0.019609375,0.00368086207737238
0.0196875,0.00369931961100002
0.019765625,0.00368073300604158
0.01984375,0.00368086207737238
0.019921875,0.00386722515795196
0.02,0.00386703529546862
0.020078125,0.00368086207737238
0.02015625,0.00386703529546862
0.020234375,0.0038668677620064
0.0203125,0.0038668677620064
0.020390625,0.00386703529546862
0.02046875,0.00384864144854567
0.020546875,0.00384845066923915
0.020625,0.00384845066923915
0.020703125,0.00383005778154768
0.02078125,0.00384845066923915
0.020859375,0.00384845066923915
0.0209375,0.00381147415757829
0.021015625,0.00381147415757829
0.02109375,0.00381128151780877
0.021171875,0.00381111153345516
0.02125,0.00379269699359796
0.021328125,0.00381128151780877
0.02140625,0.00381128151780877
0.021484375,0.00379289057726999
0.0215625,0.00377430704126768
0.021640625,0.00377411250439972
0.02171875,0.00379269699359796
0.021796875,0.00377411250439972
0.021875,0.00379269699359796
0.021953125,0.00379269699359796
0.02203125,0.00377394084589446
0.022109375,0.00375552805073384
0.0221875,0.00375552805073384
0.022265625,0.00375572355022906
0.02234375,0.00375552805073384
0.022421875,0.00377394084589446
0.0225,0.00375572355022906
0.022578125,0.0037371401048249
0.02265625,0.0037371401048249
0.022734375,0.0037371401048249
0.0228125,0.0037371401048249
0.022890625,0.00373677026717437
0.02296875,0.00373677026717437
0.023046875,0.00371835925213025
0.023125,0.00373677026717437
0.023203125,0.00371855670573936
0.02328125,0.00371835925213025
0.023359375,0.00371818501964963
0.0234375,0.00371835925213025
0.023515625,0.00368119060215697
0.02359375,0.00368139004932991
0.023671875,0.00368139004932991
0.02375,0.00369997335367036
0.023828125,0.00368119060215697
0.02390625,0.00368101461038299
0.023984375,0.00368101461038299
