t [s],D [m]
7.8125e-05,0.00137564343661873
0.00015625,0.00159868286199612
0.000234375,0.00174737829751775
0.0003125,0.00191466236997017
0.000390625,0.00206336049922221
0.00046875,0.00219347208558373
0.000546875,0.00230499674876327
0.000625,0.00241652176370363
0.000703125,0.00252813250325592
0.00078125,0.00263952358304289
0.000859375,0.00271400276269561
0.0009375,0.0028254491548485
0.001015625,0.002899874372128
0.00109375,0.00297422333720457
0.001171875,0.00304857246573354
0.00125,0.00312292174604068
0.001328125,0.00319727116753768
0.00140625,0.00325296693625732
0.001484375,0.00330879554369413
0.0015625,0.00338314527789838
0.001640625,0.00345758256311595
0.00171875,0.00349467008519424
0.001796875,0.00353193067171158
0.001875,0.00360619511929217
0.001953125,0.00364345315657946
0.00203125,0.00368054525784398
0.002109375,0.0037177203597812
0.0021875,0.00377356316969625
0.002265625,0.00381065820477509
0.00234375,0.00386642097061729
0.002421875,0.00388500856861668
0.0025,0.00392218377829316
0.002578125,0.00395943536262834
0.00265625,0.0039781203383478
0.002734375,0.00401519717572555
0.0028125,0.00403370951220612
0.002890625,0.00407088479020862
0.00296875,0.00410822829472997
0.003046875,0.0041266477369421
0.003125,0.0041452353935679
0.003203125,0.00418257593851689
0.00328125,0.00418248300282583
0.003359375,0.00421974982215285
0.0034375,0.00425683243299244
0.003515625,0.00425683243299244
0.00359375,0.00427541980621743
0.003671875,0.00429400718555282
0.00375,0.00429400718555282
0.003828125,0.00433111215923137
0.00390625,0.00433111215923137
0.003984375,0.00436835676243846
0.0040625,0.00436835676243846
0.004140625,0.00436835676243846
0.00421875,0.00440553158555257
0.004296875,0.00440553158555257
0.004375,0.00442411900552254
0.004453125,0.00442405066888175
0.00453125,0.00444263838027815
0.004609375,0.00446138098968212
0.0046875,0.00446129386193777
0.004765625,0.00447981381222305
0.00484375,0.00447988129824631
0.004921875,0.00449855514760985
0.005,0.00449846873986623
0.005078125,0.00449840153269592
0.00515625,0.00449840153269592
0.005234375,0.00449840153269592
0.0053125,0.00449846873986623
0.005390625,0.00449846873986623
0.00546875,0.00449855514760985
0.005546875,0.00449855514760985
0.005625,0.00449855514760985
0.005703125,0.00449855514760985
0.00578125,0.00449855514760985
0.005859375,0.00449855514760985
0.0059375,0.00449855514760985
0.006015625,0.00449855514760985
0.00609375,0.00449855514760985
0.006171875,0.00449855514760985
0.00625,0.00449846873986623
0.006328125,0.00449846873986623
0.00640625,0.00449846873986623
0.006484375,0.00449846873986623
0.0065625,0.00449846873986623
0.006640625,0.00449846873986623
0.00671875,0.00449846873986623
0.006796875,0.00449846873986623
0.006875,0.00449846873986623
0.006953125,0.00449846873986623
0.00703125,0.00449846873986623
0.007109375,0.00449846873986623
0.0071875,0.00449846873986623
0.007265625,0.00449846873986623
0.00734375,0.00449846873986623
0.007421875,0.00449840153269592
0.0075,0.00449840153269592
0.007578125,0.00449846873986623
0.00765625,0.00449855514760985
0.007734375,0.00449840153269592
0.0078125,0.00449846873986623
0.007890625,0.00449840153269592
0.00796875,0.00449855514760985
0.008046875,0.00449846873986623
0.008125,0.00449855514760985
0.008203125,0.00449855514760985
0.00828125,0.00449855514760985
0.008359375,0.00449855514760985
0.0084375,0.00449855514760985
0.008515625,0.00449855514760985
0.00859375,0.00449855514760985
0.008671875,0.00449846873986623
0.00875,0.00449846873986623
0.008828125,0.00449846873986623
0.00890625,0.00449846873986623
0.008984375,0.0044986607548204
0.0090625,0.0044986607548204
0.009140625,0.00449855514760985
0.00921875,0.0044986607548204
0.009296875,0.0044986607548204
0.009375,0.00449855514760985
0.009453125,0.0044986607548204
0.00953125,0.00449855514760985
0.009609375,0.0044986607548204
0.0096875,0.00449855514760985
0.009765625,0.0044986607548204
0.00984375,0.00449855514760985
0.009921875,0.00449855514760985
0.01,0.00449855514760985
0.010078125,0.00449855514760985
0.01015625,0.00449855514760985
0.010234375,0.00449855514760985
0.0103125,0.00449855514760985
0.010390625,0.00449846873986623
0.01046875,0.00449846873986623
0.010546875,0.00449846873986623
0.010625,0.00449846873986623
0.010703125,0.00449846873986623
0.01078125,0.00449846873986623
0.010859375,0.00449855514760985
0.0109375,0.00449855514760985
0.011015625,0.00449855514760985
0.01109375,0.00449855514760985
0.011171875,0.00449855514760985
0.01125,0.0044986607548204
0.011328125,0.0044986607548204
0.01140625,0.0044986607548204
0.011484375,0.00449855514760985
0.0115625,0.00449855514760985
0.011640625,0.00449846873986623
0.01171875,0.00449846873986623
0.011796875,0.00449846873986623
0.011875,0.00449846873986623
0.011953125,0.00447996806449672
0.01203125,0.00446138098968212
0.012109375,0.00446138098968212
0.0121875,0.00446148747683676
0.012265625,0.00446129386193777
0.01234375,0.00446129386193777
0.012421875,0.00444279392327019
0.0125,0.00444279392327019
0.012578125,0.00444270643100724
0.01265625,0.00442431424725158
0.012734375,0.00442411900552254
0.0128125,0.00440561981607978
0.012890625,0.00440561981607978
0.01296875,0.00440561981607978
0.013046875,0.00440561981607978
0.013125,0.00438694417116745
0.013203125,0.00438703277551849
0.01328125,0.00438694417116745
0.013359375,0.00436844574379438
0.0134375,0.00438694417116745
0.013515625,0.00436844574379438
0.01359375,0.00436844574379438
0.013671875,0.00436844574379438
0.01375,0.00434985872102072
0.013828125,0.00434985872102072
0.01390625,0.00433127170731275
0.013984375,0.00433127170731275
0.0140625,0.00433127170731275
0.014140625,0.00433127170731275
0.01421875,0.00433127170731275
0.014296875,0.00433127170731275
0.014375,0.00431268470278767
0.014453125,0.00431259457091962
0.01453125,0.00431259457091962
0.014609375,0.00431259457091962
0.0146875,0.00429409770756474
0.014765625,0.00429409770756474
0.01484375,0.00427551072176526
0.014921875,0.00427551072176526
0.015,0.00427541980621743
0.015078125,0.00427541980621743
0.01515625,0.00427541980621743
0.015234375,0.00425692374551269
0.0153125,0.00423833677893261
0.015390625,0.00423833677893261
0.01546875,0.00423833677893261
0.015546875,0.00423833677893261
0.015625,0.00423833677893261
0.015703125,0.00423833677893261
0.01578125,0.00421974982215285
0.015859375,0.00423824506595825
0.0159375,0.00420107035079095
0.016015625,0.00420116287530348
0.01609375,0.00420116287530348
0.016171875,0.00420116287530348
0.01625,0.00418257593851689
0.016328125,0.00418257593851689
0.01640625,0.00418257593851689
0.016484375,0.00416389566138758
0.0165625,0.00416398901192783
0.016640625,0.00416389566138758
0.01671875,0.00416398901192783
0.016796875,0.00416389566138758
0.016875,0.00414540209567348
0.016953125,0.00416389566138758
0.01703125,0.00412672099844441
0.017109375,0.00414540209567348
0.0171875,0.00412681518989347
0.017265625,0.00412672099844441
0.01734375,0.00412672099844441
0.017421875,0.00410822829472997
0.0175,0.00408954636268303
0.017578125,0.00410822829472997
0.01765625,0.00408954636268303
0.017734375,0.00408954636268303
0.0178125,0.00408954636268303
0.017890625,0.00408954636268303
0.01796875,0.00407105453683416
0.018046875,0.00407105453683416
0.018125,0.00407105453683416
0.018203125,0.00405237175485149
0.01828125,0.00405237175485149
0.018359375,0.00405246767439934
0.0184375,0.00405237175485149
0.018515625,0.00403388082317614
0.01859375,0.00403388082317614
0.018671875,0.00403388082317614
0.01875,0.00401529398332026
0.018828125,0.00401529398332026
0.01890625,0.00401529398332026
0.018984375,0.00401529398332026
0.0190625,0.00401519717572555
0.019140625,0.00401519717572555
0.01921875,0.00399653425057568
0.019296875,0.00399660989717751
0.019375,0.0039781203383478
0.019453125,0.00397802262610999
0.01953125,0.00397802262610999
0.019609375,0.00397802262610999
0.0196875,0.00395953353355737
0.019765625,0.00394084810683991
0.01984375,0.00394084810683991
0.019921875,0.00394084810683991
0.02,0.00394094674078668
0.020078125,0.00394094674078668
0.02015625,0.00394084810683991
0.020234375,0.00394094674078668
0.0203125,0.00392235996020662
0.020390625,0.00390367361878227
0.02046875,0.00390367361878227
0.020546875,0.00390377319199132
0.020625,0.00390377319199132
0.020703125,0.00390367361878227
0.02078125,0.00390367361878227
0.020859375,0.00390367361878227
0.0209375,0.0038850863867381
0.021015625,0.00386649916283733
0.02109375,0.00386659969336822
0.021171875,0.00386659969336822
0.02125,0.00386659969336822
0.021328125,0.00386649916283733
0.02140625,0.00386649916283733
0.021484375,0.00384783337726522
0.0215625,0.00382942624637851
0.021640625,0.00382932473994034
0.02171875,0.00382942624637851
0.021796875,0.00382932473994034
0.021875,0.00382932473994034
0.021953125,0.00381065820477509
0.02203125,0.00381065820477509
0.022109375,0.00379225285254057
0.0221875,0.00379225285254057
0.022265625,0.00379225285254057
0.02234375,0.00379225285254057
0.022421875,0.00379215035106319
0.0225,0.00379215035106319
0.022578125,0.00377348305170374
0.02265625,0.00377356316969625
0.022734375,0.00375507951343295
0.0228125,0.00375507951343295
0.022890625,0.00375507951343295
0.02296875,0.00375507951343295
0.023046875,0.00373638883375591
0.023125,0.00373638883375591
0.023203125,0.00371780167945042
0.02328125,0.0037363079186308
0.023359375,0.0037179062306973
0.0234375,0.0037179062306973
0.023515625,0.00371780167945042
0.02359375,0.0036991328061592
0.023671875,0.00371780167945042
0.02375,0.0036991328061592
0.023828125,0.0036991328061592
0.02390625,0.00368073300604158
0.023984375,0.00368073300604158
0.0240625,0.00368073300604158
0.024140625,0.00368073300604158
0.02421875,0.00366195771491636
0.024296875,0.00368073300604158
0.024375,0.00366195771491636
0.024453125,0.00366195771491636
0.02453125,0.00366195771491636
0.024609375,0.00364355984124349
0.0246875,0.00364355984124349
0.024765625,0.00364345315657946
0.02484375,0.00364345315657946
0.024921875,0.00362478264555544
0.025,0.00362478264555544
0.025078125,0.00362486605017517
0.02515625,0.00360627895379702
0.025234375,0.00360627895379702
0.0253125,0.00360638673815396
0.025390625,0.00360627895379702
0.02546875,0.00358760759875666
0.025546875,0.00358760759875666
0.025625,0.00356902008403839
0.025703125,0.0035691047917457
0.02578125,0.0035691047917457
0.025859375,0.0035691047917457
0.0259375,0.0035691047917457
0.026015625,0.00355043257522874
0.02609375,0.00355043257522874
0.026171875,0.00355043257522874
0.02625,0.00353193067171158
0.026328125,0.0035320407248941
0.02640625,0.0035320407248941
0.026484375,0.0035320407248941
0.0265625,0.00351345426325895
0.026640625,0.00351325757571038
0.02671875,0.00351325757571038
0.026796875,0.0034947565950355
0.026875,0.00349486781882771
0.026953125,0.0034947565950355
0.02703125,0.00349486781882771
0.027109375,0.00347608260097191
0.0271875,0.00347608260097191
0.027265625,0.00347608260097191
0.02734375,0.00347608260097191
0.027421875,0.00345758256311595
0.0275,0.00345769498268672
0.027578125,0.00345769498268672
0.02765625,0.00343890765181693
0.027734375,0.00343890765181693
0.0278125,0.00343890765181693
0.027890625,0.00343890765181693
0.02796875,0.00342040857741221
0.028046875,0.00342040857741221
0.028125,0.00342040857741221
0.028203125,0.00342040857741221
0.02828125,0.00340173272908421
0.028359375,0.00340173272908421
0.0284375,0.00340173272908421
0.028515625,0.00340173272908421
0.02859375,0.00338323463944769
0.028671875,0.00338323463944769
0.02875,0.00338323463944769
0.028828125,0.00336455783364955
0.02890625,0.00338323463944769
0.028984375,0.00336455783364955
0.0290625,0.00336455783364955
0.029140625,0.00334606075081351
0.02921875,0.00334606075081351
0.029296875,0.00334606075081351
0.029375,0.00334606075081351
0.029453125,0.0033273829664279
0.02953125,0.00330888691317229
0.029609375,0.0033273829664279
0.0296875,0.00330888691317229
0.029765625,0.00330888691317229
0.02984375,0.00330888691317229
0.029921875,0.00330888691317229
0.03,0.00329020812837559
0.030078125,0.00329020812837559
0.03015625,0.00329020812837559
0.030234375,0.00327171312826219
0.0303125,0.00327171312826219
0.030390625,0.00327162072059866
0.03046875,0.00327162072059866
0.030546875,0.00325303332049262
0.030625,0.00325303332049262
0.030703125,0.00325303332049262
0.03078125,0.00325303332049262
0.030859375,0.0032345393979013
0.0309375,0.0032345393979013
0.031015625,0.00323444592818971
0.03109375,0.00323444592818971
0.031171875,0.0032345393979013
0.03125,0.00321585854382525
0.031328125,0.00321585854382525
0.03140625,0.00321585854382525
0.031484375,0.00321585854382525
0.0315625,0.00319736572399224
0.031640625,0.00321585854382525
0.03171875,0.00319727116753768
0.031796875,0.00319727116753768
0.031875,0.00319736572399224
0.031953125,0.00319727116753768
0.03203125,0.00317868379946869
0.032109375,0.00317868379946869
0.0321875,0.00317868379946869
0.032265625,0.00317868379946869
0.03234375,0.00316019210852716
0.032421875,0.0031600964397633
0.0325,0.0031600964397633
0.032578125,0.0031600964397633
0.03265625,0.00314150908856997
0.032734375,0.00312292174604068
0.0328125,0.00314150908856997
0.032890625,0.00312301855359306
0.03296875,0.00312301855359306
0.033046875,0.00312301855359306
0.033125,0.00312292174604068
0.033203125,0.00312292174604068
0.03328125,0.00308574708760053
0.033359375,0.00306715977201227
0.0334375,0.00306715977201227
0.033515625,0.00304857246573354
0.03359375,0.00304857246573354
0.033671875,0.00304857246573354
0.03375,0.00304857246573354
0.033828125,0.00304857246573354
0.03390625,0.00304850162915763
0.033984375,0.00304850162915763
0.0340625,0.00301139788179416
0.034140625,0.00301139788179416
0.03421875,0.00301132617074645
0.034296875,0.00301139788179416
0.034375,0.00301139788179416
0.034453125,0.00299291162056859
0.03453125,0.00297422333720457
0.034609375,0.00297422333720457
0.0346875,0.00297422333720457
0.034765625,0.00297415072982531
0.03484375,0.00297422333720457
0.034921875,0.00297415072982531
0.035,0.00293704883345893
0.035078125,0.00293704883345893
0.03515625,0.00293704883345893
0.035234375,0.00291846159739032
0.0353125,0.002899874372128
0.035390625,0.002899874372128
0.03546875,0.002899874372128
0.035546875,0.002899874372128
0.035625,0.002899874372128
0.035703125,0.00289979990314381
0.03578125,0.00288128715788109
0.035859375,0.00288121220848423
0.0359375,0.00286269995486417
0.036015625,0.00286269995486417
0.03609375,0.00286269995486417
0.036171875,0.00286269995486417
0.03625,0.00284411276329739
0.036328125,0.00282552558340674
0.03640625,0.00282552558340674
0.036484375,0.00282552558340674
0.0365625,0.00282552558340674
0.036640625,0.00282552558340674
0.03671875,0.00280686148075249
0.036796875,0.00280686148075249
0.036875,0.00280686148075249
0.036953125,0.00278835125958781
0.03703125,0.00278835125958781
0.037109375,0.00278835125958781
0.0371875,0.00278827381205524
0.037265625,0.00278827381205524
0.03734375,0.00276968614886544
0.037421875,0.00276968614886544
0.0375,0.00275117698533847
0.037578125,0.00275117698533847
0.03765625,0.00275117698533847
0.037734375,0.00275109849129473
0.0378125,0.00275109849129473
0.037890625,0.00275109849129473
0.03796875,0.00275109849129473
0.038046875,0.00271400276269561
0.038125,0.00273251083945779
0.038203125,0.00271400276269561
0.03828125,0.00271400276269561
0.038359375,0.00271392319347241
0.0384375,0.00271400276269561
0.038515625,0.00271392319347241
0.03859375,0.00271392319347241
0.038671875,0.00271392319347241
0.03875,0.00269533555345967
0.038828125,0.00267694153369617
0.03890625,0.00267682859380927
0.038984375,0.00267682859380927
0.0390625,0.00267682859380927
0.039140625,0.00267682859380927
0.03921875,0.00267682859380927
0.039296875,0.00267682859380927
0.039375,0.00267674791954398
0.039453125,0.00267674791954398
0.03953125,0.00267674791954398
0.039609375,0.00267674791954398
0.0396875,0.00263976901129537
0.039765625,0.00263976901129537
0.03984375,0.00263965448095061
0.039921875,0.00263976901129537
0.04,0.00263965448095061
0.040078125,0.00263965448095061
0.04015625,0.00263965448095061
0.040234375,0.00263957267051899
0.0403125,0.00263957267051899
0.040390625,0.00263957267051899
0.04046875,0.00263957267051899
0.040546875,0.00262098505567643
0.040625,0.00262098505567643
0.040703125,0.00262106744627663
0.04078125,0.00262098505567643
0.040859375,0.00260248042652055
0.0409375,0.00260248042652055
0.041015625,0.00260248042652055
0.04109375,0.00260248042652055
0.041171875,0.00260248042652055
0.04125,0.00260248042652055
0.041328125,0.00260248042652055
0.04140625,0.00260239744746468
0.041484375,0.00260239744746468
0.0415625,0.00260239744746468
0.041640625,0.00260239744746468
0.04171875,0.00260239744746468
0.041796875,0.00258380984602683
0.041875,0.00260239744746468
0.041953125,0.00258380984602683
0.04203125,0.00256522225151015
0.042109375,0.00258380984602683
0.0421875,0.00256542428258707
0.042265625,0.00256530643305916
0.04234375,0.00256542428258707
0.042421875,0.00256530643305916
0.0425,0.00256530643305916
0.042578125,0.00256530643305916
0.04265625,0.00256530643305916
0.042734375,0.00256530643305916
0.0428125,0.00256522225151015
0.042890625,0.00256530643305916
0.04296875,0.00256522225151015
0.043046875,0.00256522225151015
0.043125,0.00256522225151015
0.043203125,0.00256522225151015
0.04328125,0.00256522225151015
0.043359375,0.00256522225151015
0.0434375,0.00256522225151015
0.043515625,0.00256530643305916
0.04359375,0.00256522225151015
0.043671875,0.00256522225151015
0.04375,0.00256522225151015
0.043828125,0.00256522225151015
0.04390625,0.00256522225151015
0.043984375,0.00254663466406617
0.0440625,0.00256522225151015
0.044140625,0.00254663466406617
0.04421875,0.00256522225151015
0.044296875,0.00254663466406617
0.044375,0.00256522225151015
0.044453125,0.00254663466406617
0.04453125,0.00252813250325592
0.044609375,0.00256522225151015
0.0446875,0.00256522225151015
0.044765625,0.00254663466406617
0.04484375,0.00254663466406617
0.044921875,0.00256522225151015
0.045,0.00256522225151015
0.045078125,0.00256522225151015
0.04515625,0.00256522225151015
0.045234375,0.00256522225151015
0.0453125,0.00256522225151015
0.045390625,0.00256522225151015
0.04546875,0.00256530643305916
0.045546875,0.00256530643305916
0.045625,0.00256530643305916
0.045703125,0.00256522225151015
0.04578125,0.00256522225151015
0.045859375,0.00256522225151015
0.0459375,0.00256522225151015
0.046015625,0.00256522225151015
0.04609375,0.00256522225151015
0.046171875,0.0025838934220043
0.04625,0.00256522225151015
0.046328125,0.0025838934220043
0.04640625,0.0025838934220043
0.046484375,0.0025838934220043
0.0465625,0.0025838934220043
0.046640625,0.0025838934220043
0.04671875,0.0025838934220043
0.046796875,0.00260239744746468
0.046875,0.0025838934220043
0.046953125,0.00260239744746468
0.04703125,0.00260239744746468
0.047109375,0.00260239744746468
0.0471875,0.00260234765876113
0.047265625,0.00260239744746468
0.04734375,0.00260239744746468
0.047421875,0.00260234765876113
0.0475,0.00260234765876113
0.047578125,0.00260234765876113
0.04765625,0.00262098505567643
0.047734375,0.00260234765876113
0.0478125,0.00262098505567643
0.047890625,0.00260239744746468
0.04796875,0.00262098505567643
0.048046875,0.00260239744746468
0.048125,0.00262098505567643
0.048203125,0.00262098505567643
0.04828125,0.00260239744746468
0.048359375,0.00260239744746468
0.0484375,0.00262098505567643
0.048515625,0.00262098505567643
0.04859375,0.00262098505567643
0.048671875,0.00262098505567643
0.04875,0.00260239744746468
0.048828125,0.00260234765876113
0.04890625,0.00260234765876113
0.048984375,0.00262098505567643
0.0490625,0.00262098505567643
0.049140625,0.00262098505567643
0.04921875,0.00262098505567643
0.049296875,0.00262098505567643
0.049375,0.00262098505567643
0.049453125,0.00262098505567643
0.04953125,0.00262098505567643
0.049609375,0.00262106744627663
0.0496875,0.00262106744627663
0.049765625,0.00262106744627663
0.04984375,0.00262106744627663
0.049921875,0.00262106744627663
0.05,0.00262106744627663
0.050078125,0.00262106744627663
0.05015625,0.00262106744627663
0.050234375,0.00262106744627663
0.0503125,0.00262106744627663
0.050390625,0.00262106744627663
0.05046875,0.00262106744627663
