t [s],D [m]
7.8125e-05,0.00128261112575507
0.00015625,0.00174730414556965
0.000234375,0.00208188559537248
0.0003125,0.00236075921537914
0.000390625,0.00262106744627663
0.00046875,0.00284411276329739
0.000546875,0.003048459126422
0.000625,0.00321575110052547
0.000703125,0.00340173272908421
0.00078125,0.00355037175171748
0.000859375,0.0036991328061592
0.0009375,0.00382924578862816
0.001015625,0.00395935900577848
0.00109375,0.00407088479020862
0.001171875,0.00418248300282583
0.00125,0.00429400718555282
0.001328125,0.00438694417116745
0.00140625,0.00446129386193777
0.001484375,0.00455416471167534
0.0015625,0.00462851565664007
0.001640625,0.00470301358141676
0.00171875,0.00475869344538452
0.001796875,0.00483312395354667
0.001875,0.004888744292447
0.001953125,0.00494456877641579
0.00203125,0.00498174389150773
0.002109375,0.00503750659300813
0.0021875,0.00507462217016271
0.002265625,0.00511179777112302
0.00234375,0.00514897338012752
0.002421875,0.00518614899700322
0.0025,0.00522338250146571
0.002578125,0.00524204426353404
0.00265625,0.00527914534103798
0.002734375,0.00531639369885967
0.0028125,0.00531639369885967
0.002890625,0.00535349583908796
0.00296875,0.00535356844652849
0.003046875,0.00539067110691933
0.003125,0.00539074321364952
0.003203125,0.00539067110691933
0.00328125,0.00540925874542353
0.003359375,0.00540925874542353
0.0034375,0.00540925874542353
0.003515625,0.00540925874542353
0.00359375,0.00540933060437928
0.003671875,0.00540920285446463
0.00375,0.00540933060437928
0.003828125,0.00540933060437928
0.00390625,0.00540925874542353
0.003984375,0.00540933060437928
0.0040625,0.00540933060437928
0.004140625,0.00540933060437928
0.00421875,0.00540925874542353
0.004296875,0.00540933060437928
0.004375,0.00540933060437928
0.004453125,0.00540933060437928
0.00453125,0.00540933060437928
0.004609375,0.00540933060437928
0.0046875,0.00540925874542353
0.004765625,0.00540933060437928
0.00484375,0.00540933060437928
0.004921875,0.00540933060437928
0.005,0.00540925874542353
0.005078125,0.00540925874542353
0.00515625,0.00540933060437928
0.005234375,0.00540933060437928
0.0053125,0.00540933060437928
0.005390625,0.00540933060437928
0.00546875,0.00540933060437928
0.005546875,0.00540933060437928
0.005625,0.00540933060437928
0.005703125,0.00540933060437928
0.00578125,0.00540925874542353
0.005859375,0.00540925874542353
0.0059375,0.00540933060437928
0.006015625,0.00540925874542353
0.00609375,0.00540925874542353
0.006171875,0.00540925874542353
0.00625,0.00540925874542353
0.006328125,0.00540920285446463
0.00640625,0.00540920285446463
0.006484375,0.00540920285446463
0.0065625,0.00540925874542353
0.006640625,0.00540925874542353
0.00671875,0.00540925874542353
0.006796875,0.00540920285446463
0.006875,0.00540925874542353
0.006953125,0.00540925874542353
0.00703125,0.00540925874542353
0.007109375,0.00540925874542353
0.0071875,0.00540925874542353
0.007265625,0.00540925874542353
0.00734375,0.00540925874542353
0.007421875,0.00537208347146356
0.0075,0.00537208347146356
0.007578125,0.00537208347146356
0.00765625,0.00537208347146356
0.007734375,0.00535343936595339
0.0078125,0.00535343936595339
0.007890625,0.00533490820982472
0.00796875,0.00533490820982472
0.008046875,0.00533498107023714
0.008125,0.00531626371566994
0.008203125,0.00529773296076639
0.00828125,0.00531626371566994
0.008359375,0.00531626371566994
0.0084375,0.00529773296076639
0.008515625,0.00529773296076639
0.00859375,0.00527908807253775
0.008671875,0.00527908807253775
0.00875,0.00526055772455529
0.008828125,0.00526050025370075
0.00890625,0.00526055772455529
0.008984375,0.00524191243670896
0.0090625,0.00524191243670896
0.009140625,0.00522338250146571
0.00921875,0.00522338250146571
0.009296875,0.00522332462158207
0.009375,0.00522338250146571
0.009453125,0.00520486957673448
0.00953125,0.00518620729177982
0.009609375,0.00518620729177982
0.0096875,0.00518620729177982
0.009765625,0.00518620729177982
0.00984375,0.00516756118759209
0.009921875,0.00514903209578795
0.01,0.00514897338012752
0.010078125,0.00514897338012752
0.01015625,0.00514903209578795
0.010234375,0.00514897338012752
0.0103125,0.00513038557463067
0.010390625,0.00511185691378886
0.01046875,0.00511179777112302
0.010546875,0.00511185691378886
0.010625,0.00509320996962633
0.010703125,0.00509320996962633
0.01078125,0.00507468174609005
0.010859375,0.00507468174609005
0.0109375,0.00507468174609005
0.011015625,0.00505603437275458
0.01109375,0.00505603437275458
0.011171875,0.00503750659300813
0.01125,0.00503744657742469
0.011328125,0.00503744657742469
0.01140625,0.00503750659300813
0.011484375,0.00503750659300813
0.0115625,0.00501885878419614
0.011640625,0.00500033145486911
0.01171875,0.00500027099309235
0.011796875,0.00500033145486911
0.011875,0.00498168320413712
0.011953125,0.00498168320413712
0.01203125,0.00498168320413712
0.012109375,0.00496315633200877
0.0121875,0.00496323464975132
0.012265625,0.00496315633200877
0.01234375,0.00494450763276924
0.012421875,0.00492591985040596
0.0125,0.00492591985040596
0.012578125,0.0048887001197743
0.01265625,0.00487015651690298
0.012734375,0.00490733207029001
0.0128125,0.00490733207029001
0.012890625,0.00485156874368435
0.01296875,0.00483298097281796
0.013046875,0.0048516310586119
0.013125,0.00483298097281796
0.013203125,0.00483298097281796
0.01328125,0.00483298097281796
0.013359375,0.00481439320433105
0.0134375,0.00481445600043262
0.013515625,0.00479580543825129
0.01359375,0.00479580543825129
0.013671875,0.00479580543825129
0.01375,0.00477721767460677
0.013828125,0.00477721767460677
0.01390625,0.00475862991342602
0.013984375,0.00475862991342602
0.0140625,0.00475862991342602
0.014140625,0.00475862991342602
0.01421875,0.00473999659629011
0.014296875,0.00472145439857228
0.014375,0.00472145439857228
0.014453125,0.00472145439857228
0.01453125,0.00472145439857228
0.014609375,0.00470286664495862
0.0146875,0.00470286664495862
0.014765625,0.00468427889392746
0.01484375,0.00470282072637395
0.014921875,0.00468427889392746
0.015,0.00468427889392746
0.015078125,0.00466569114550966
0.01515625,0.00466564486104925
0.015234375,0.00464710339973657
0.0153125,0.00464710339973657
0.015390625,0.00464710339973657
0.01546875,0.00462851565664007
0.015546875,0.00464710339973657
0.015625,0.00462858097454878
0.015703125,0.00460992791625252
0.01578125,0.00460992791625252
0.015859375,0.00460992791625252
0.0159375,0.00459134017860684
0.016015625,0.00459129314462032
0.01609375,0.00459140602537852
0.016171875,0.00457275244373645
0.01625,0.00457275244373645
0.016328125,0.00455411729374827
0.01640625,0.00455423109594382
0.016484375,0.00455423109594382
0.0165625,0.00453557698245805
0.016640625,0.00453557698245805
0.01671875,0.00451698925611967
0.016796875,0.00451694144793229
0.016875,0.00449840153269592
0.016953125,0.00449840153269592
0.01703125,0.00449840153269592
0.017109375,0.00449840153269592
0.0171875,0.00447976560729828
0.017265625,0.00446122609473796
0.01734375,0.00446122609473796
0.017421875,0.00446122609473796
0.0175,0.00446122609473796
0.017578125,0.00444263838027815
0.01765625,0.00442405066888175
0.017734375,0.00444258977197631
0.0178125,0.00442405066888175
0.017890625,0.00442405066888175
0.01796875,0.00440541394210088
0.018046875,0.00442405066888175
0.018125,0.00440541394210088
0.018203125,0.00438687525543494
0.01828125,0.00438687525543494
0.018359375,0.00438687525543494
0.0184375,0.00438687525543494
0.018515625,0.00436828755346407
0.01859375,0.00434969985471572
0.018671875,0.00434969985471572
0.01875,0.00434969985471572
0.018828125,0.00434969985471572
0.01890625,0.00434969985471572
0.018984375,0.00433118196224015
0.0190625,0.00431252446705322
0.019140625,0.00431252446705322
0.01921875,0.00431252446705322
0.019296875,0.0042938864865684
0.019375,0.00429393677822422
0.019453125,0.0042938864865684
0.01953125,0.00427534909278805
0.019609375,0.00427534909278805
0.0196875,0.00427534909278805
0.019765625,0.00425676141078915
0.01984375,0.00425676141078915
0.019921875,0.00425683243299244
0.02,0.00423817373227275
0.020078125,0.00423817373227275
0.02015625,0.00421958605728487
0.020234375,0.00421958605728487
0.0203125,0.00421958605728487
0.020390625,0.00420099838587235
0.02046875,0.00420099838587235
0.020546875,0.00420099838587235
0.020625,0.0041823590853587
0.020703125,0.00418241071808286
0.02078125,0.00416382305396491
0.020859375,0.00416382305396491
0.0209375,0.00416382305396491
0.021015625,0.00416382305396491
0.02109375,0.00416382305396491
0.021171875,0.0041452353935679
0.02125,0.0041266477369421
0.021328125,0.0041266477369421
0.02140625,0.0041266477369421
0.021484375,0.00410806008413872
0.0215625,0.00410806008413872
0.021640625,0.00410800751691643
0.02171875,0.00408947243520987
0.021796875,0.00408947243520987
0.021875,0.00407083174293657
0.021953125,0.00407083174293657
0.02203125,0.00407083174293657
0.022109375,0.00407083174293657
0.0221875,0.00405229714918902
0.022265625,0.00405229714918902
0.02234375,0.00403370951220612
0.022421875,0.00403370951220612
0.0225,0.00403370951220612
0.022578125,0.00401512187931597
0.02265625,0.00401512187931597
0.022734375,0.00399653425057568
0.0228125,0.00399653425057568
0.022890625,0.00399653425057568
0.02296875,0.00399653425057568
0.023046875,0.00395930446426986
0.023125,0.00395930446426986
0.023203125,0.00395935900577848
0.02328125,0.00395935900577848
0.023359375,0.00395935900577848
0.0234375,0.00395935900577848
0.023515625,0.00395943536262834
0.02359375,0.00394077138984122
0.023671875,0.00394077138984122
0.02375,0.00392218377829316
0.023828125,0.00392218377829316
0.02390625,0.0039221287198222
0.023984375,0.00390359617119702
0.0240625,0.00390359617119702
0.024140625,0.00390359617119702
0.02421875,0.00390359617119702
0.024296875,0.00390359617119702
0.024375,0.00388500856861668
0.024453125,0.00390367361878227
0.02453125,0.00386642097061729
0.024609375,0.00386642097061729
0.0246875,0.00386642097061729
0.024765625,0.00386649916283733
0.02484375,0.0038291893938371
0.024921875,0.00382924578862816
0.025,0.00382924578862816
0.025078125,0.00382924578862816
0.02515625,0.00381060153489811
0.025234375,0.00381060153489811
0.0253125,0.00379207062577637
0.025390625,0.00379207062577637
0.02546875,0.00379207062577637
0.025546875,0.00377342582352475
0.025625,0.00377348305170374
0.025703125,0.00377342582352475
0.02578125,0.00377342582352475
0.025859375,0.00375489548263034
0.0259375,0.00375489548263034
0.026015625,0.00373625012103998
0.02609375,0.00373625012103998
0.026171875,0.00373625012103998
0.02625,0.0037177203597812
0.026328125,0.0037177203597812
0.02640625,0.0037177203597812
0.026484375,0.00369907442771179
0.0265625,0.00368054525784398
0.026640625,0.00369907442771179
0.02671875,0.00368054525784398
0.026796875,0.00366189874381905
0.026875,0.00366195771491636
0.026953125,0.00366189874381905
0.02703125,0.00366189874381905
0.027109375,0.0036433701774588
0.0271875,0.0036433701774588
0.027265625,0.0036433701774588
0.02734375,0.00362472306965208
0.027421875,0.00362472306965208
0.0275,0.00362472306965208
0.027578125,0.00360619511929217
0.02765625,0.00360619511929217
0.027734375,0.00358754740551322
0.0278125,0.00358760759875666
0.027890625,0.00358760759875666
0.02796875,0.00358769186760084
0.028046875,0.00356902008403839
0.028125,0.00355037175171748
0.028203125,0.00355037175171748
0.02828125,0.00355043257522874
0.028359375,0.00355043257522874
0.0284375,0.00355037175171748
0.028515625,0.00353184507242098
0.02859375,0.00351319610859321
0.028671875,0.00351319610859321
0.02875,0.00351325757571038
0.028828125,0.00351325757571038
0.02890625,0.00349467008519424
0.028984375,0.00349467008519424
0.0290625,0.0034760204764828
0.029140625,0.0034760204764828
0.02921875,0.00347608260097191
0.029296875,0.00347608260097191
0.029375,0.0034760204764828
0.029453125,0.00345749512314491
0.02953125,0.00343884485574345
0.029609375,0.00343884485574345
0.0296875,0.00343890765181693
0.029765625,0.00343884485574345
0.02984375,0.00342032018709394
0.029921875,0.00342032018709394
0.03,0.00340166924674795
0.030078125,0.00340166924674795
0.03015625,0.00340173272908421
0.030234375,0.00340166924674795
0.0303125,0.00340166924674795
0.030390625,0.00336449364988561
0.03046875,0.00336449364988561
0.030546875,0.00336455783364955
0.030625,0.00336455783364955
0.030703125,0.00334597039645332
0.03078125,0.00336449364988561
0.030859375,0.00332731806556311
0.0309375,0.00332731806556311
0.031015625,0.00332731806556311
0.03109375,0.0033273829664279
0.031171875,0.00332731806556311
0.03125,0.00330869111834379
0.031328125,0.00329014249420551
0.03140625,0.00329014249420551
0.031484375,0.00329014249420551
0.0315625,0.00329020812837559
0.031640625,0.00329020812837559
0.03171875,0.00327162072059866
0.031796875,0.00325296693625732
0.031875,0.00325296693625732
0.031953125,0.00325296693625732
0.03203125,0.00325303332049262
0.032109375,0.00325296693625732
0.0321875,0.00323444592818971
0.032265625,0.00321579139218357
0.03234375,0.00321579139218357
0.032421875,0.00321579139218357
0.0325,0.00321579139218357
0.032578125,0.00321579139218357
0.03265625,0.00317861586247108
0.032734375,0.00317861586247108
0.0328125,0.00317861586247108
0.032890625,0.00317861586247108
0.03296875,0.00317868379946869
0.033046875,0.00317868379946869
0.033125,0.0031600964397633
0.033203125,0.0031414403476297
0.03328125,0.0031414403476297
0.033359375,0.00314150908856997
0.0334375,0.00314150908856997
0.033515625,0.0031414403476297
0.03359375,0.0031042648481937
0.033671875,0.0031042648481937
0.03375,0.0031042648481937
0.033828125,0.0031042648481937
0.03390625,0.00310433441233108
0.033984375,0.00308574708760053
0.0340625,0.00306708936472325
0.034140625,0.00306708936472325
0.03421875,0.00306715977201227
0.034296875,0.00306708936472325
0.034375,0.00306708936472325
0.034453125,0.00304857246573354
0.03453125,0.003048459126422
0.034609375,0.00302991389780602
0.0346875,0.00302998516893565
0.034765625,0.00302998516893565
0.03484375,0.00302998516893565
0.034921875,0.00301139788179416
0.035,0.00301139788179416
0.035078125,0.00299273844805889
0.03515625,0.00299273844805889
0.035234375,0.00299273844805889
0.0353125,0.00299273844805889
0.035390625,0.00299273844805889
0.03546875,0.00299273844805889
0.035546875,0.00297410716454691
0.035625,0.00297422333720457
0.035703125,0.00297422333720457
0.03578125,0.00295556301612974
0.035859375,0.00295556301612974
0.0359375,0.00295551917686264
0.036015625,0.00293697530705836
0.03609375,0.00293697530705836
0.036171875,0.00293704883345893
0.03625,0.00291838760269951
0.036328125,0.00291838760269951
0.03640625,0.00291838760269951
0.036484375,0.00291838760269951
0.0365625,0.00291838760269951
0.036640625,0.002899874372128
0.03671875,0.00288121220848423
0.036796875,0.00288121220848423
0.036875,0.00288121220848423
0.036953125,0.00288121220848423
0.03703125,0.00286269995486417
0.037109375,0.00284403683423742
0.0371875,0.00284403683423742
0.037265625,0.00284403683423742
0.03734375,0.00284403683423742
0.037421875,0.00284403683423742
0.0375,0.00280686148075249
0.037578125,0.00282540329672119
0.03765625,0.00280686148075249
0.037734375,0.00278835125958781
0.0378125,0.00278835125958781
0.037890625,0.00276968614886544
0.03796875,0.00276968614886544
0.038046875,0.00276963936744587
0.038125,0.00275117698533847
0.038203125,0.0027324634215746
0.03828125,0.0027324634215746
0.038359375,0.0027324634215746
0.0384375,0.00271400276269561
0.038515625,0.00271400276269561
0.03859375,0.00269528748155602
0.038671875,0.00269533555345967
0.03875,0.00267682859380927
0.038828125,0.00265816029185325
0.03890625,0.00265816029185325
0.038984375,0.00265811154763569
0.0390625,0.00265811154763569
0.039140625,0.00263965448095061
0.03921875,0.00262093562007311
0.039296875,0.00262093562007311
0.039375,0.00260239744746468
0.039453125,0.00260239744746468
0.03953125,0.00260248042652055
0.039609375,0.00258380984602683
0.0396875,0.00258380984602683
0.039765625,0.00258375969914272
0.03984375,0.00258375969914272
0.039921875,0.00258375969914272
0.04,0.00254663466406617
0.040078125,0.00256530643305916
0.04015625,0.00254663466406617
0.040234375,0.00254658378513496
0.0403125,0.00254658378513496
0.040390625,0.00252804708385092
0.04046875,0.00252804708385092
0.040546875,0.00252804708385092
0.040625,0.002509459511025
0.040703125,0.002509459511025
0.04078125,0.002509459511025
0.040859375,0.0025094078783575
0.0409375,0.0025094078783575
0.041015625,0.00249087194575386
0.04109375,0.00249087194575386
0.041171875,0.00249095863996084
0.04125,0.00249095863996084
0.041328125,0.00247228438820789
0.04140625,0.00247223197913653
0.041484375,0.00247223197913653
0.0415625,0.00247223197913653
0.041640625,0.00245369683856265
0.04171875,0.00245369683856265
0.041796875,0.00245369683856265
0.041875,0.00245369683856265
0.041953125,0.00245369683856265
0.04203125,0.00245369683856265
0.042109375,0.00245369683856265
0.0421875,0.00243510929699907
0.042265625,0.00245378484619664
0.04234375,0.00243510929699907
0.042421875,0.00243510929699907
0.0425,0.00243505608781813
0.042578125,0.00243510929699907
0.04265625,0.00243505608781813
0.042734375,0.00243505608781813
0.0428125,0.00243505608781813
0.042890625,0.00241652176370363
0.04296875,0.00241652176370363
0.043046875,0.00241652176370363
0.043125,0.00241652176370363
0.043203125,0.00241652176370363
0.04328125,0.00241652176370363
0.043359375,0.00241652176370363
0.0434375,0.00241652176370363
0.043515625,0.00241652176370363
0.04359375,0.00241652176370363
0.043671875,0.00241652176370363
0.04375,0.00241652176370363
0.043828125,0.00241652176370363
0.04390625,0.00241652176370363
0.043984375,0.00241652176370363
0.0440625,0.00241646814523638
0.044140625,0.00241652176370363
0.04421875,0.00241646814523638
0.044296875,0.0023979342388686
0.044375,0.0023979342388686
0.044453125,0.0023979342388686
0.04453125,0.00239788020476987
0.044609375,0.00241652176370363
0.0446875,0.00241652176370363
0.044765625,0.00239815036308879
0.04484375,0.00241673622567666
0.044921875,0.00241646814523638
0.045,0.00241652176370363
0.045078125,0.00241652176370363
0.04515625,0.00241652176370363
0.045234375,0.00241652176370363
0.0453125,0.00241652176370363
0.045390625,0.00241652176370363
0.04546875,0.00241652176370363
0.045546875,0.00241652176370363
0.045625,0.00241652176370363
0.045703125,0.00243519797638369
0.04578125,0.00243519797638369
0.045859375,0.00243519797638369
0.0459375,0.00243510929699907
0.046015625,0.00243510929699907
0.04609375,0.00245369683856265
0.046171875,0.00245369683856265
0.04625,0.00245369683856265
0.046328125,0.00245369683856265
0.04640625,0.00245369683856265
0.046484375,0.00245369683856265
0.0465625,0.00245369683856265
0.046640625,0.00247237173419136
0.04671875,0.00247237173419136
0.046796875,0.00247228438820789
0.046875,0.00247228438820789
0.046953125,0.00247228438820789
0.04703125,0.00247228438820789
0.047109375,0.00249081992778131
0.0471875,0.00247228438820789
0.047265625,0.00249081992778131
0.04734375,0.00249081992778131
0.047421875,0.00249081992778131
0.0475,0.002509459511025
0.047578125,0.00250954556311013
0.04765625,0.00250954556311013
0.047734375,0.00250954556311013
0.0478125,0.002509459511025
0.047890625,0.002509459511025
0.04796875,0.002509459511025
0.048046875,0.002509459511025
0.048125,0.002509459511025
0.048203125,0.002509459511025
0.04828125,0.00254663466406617
0.048359375,0.00252813250325592
0.0484375,0.00252799583082251
0.048515625,0.00254663466406617
0.04859375,0.00254663466406617
0.048671875,0.00254663466406617
0.04875,0.00254663466406617
0.048828125,0.00254663466406617
0.04890625,0.00254663466406617
0.048984375,0.00254663466406617
0.0490625,0.00254663466406617
0.049140625,0.00254663466406617
0.04921875,0.0025651717412547
0.049296875,0.00258380984602683
0.049375,0.0025651717412547
0.049453125,0.00258380984602683
0.04953125,0.0025838934220043
0.049609375,0.0025651717412547
0.0496875,0.00258380984602683
0.049765625,0.00256522225151015
0.04984375,0.00256522225151015
0.049921875,0.00256530643305916
0.05,0.00256522225151015
0.050078125,0.00256522225151015
0.05015625,0.00256522225151015
0.050234375,0.00256522225151015
0.0503125,0.00256522225151015
0.050390625,0.00256522225151015
0.05046875,0.00256522225151015
