t [s],D [m]
0,0.00137554924564737
7.8125e-05,0.00178467340134475
0.00015625,0.00223105349402898
0.000234375,0.00254699078812654
0.0003125,0.00297461538642773
0.000390625,0.0033091479549229
0.00046875,0.00353233418328442
0.000546875,0.00377394084589446
0.000625,0.00392248108068175
0.000703125,0.00408975757667146
0.00078125,0.00425731941046883
0.000859375,0.00438741670702913
0.0009375,0.00449892956198827
0.001015625,0.00459201741459644
0.00109375,0.00468531143289077
0.001171875,0.00475912907025266
0.00125,0.00483362435279035
0.001328125,0.00492655109309656
0.00140625,0.00498230738179103
0.001484375,0.00503791810917751
0.0015625,0.00509415962272324
0.001640625,0.00513115159090854
0.00171875,0.00514991275036233
0.001796875,0.00520533423944683
0.001875,0.00520549188344336
0.001953125,0.0052425056313171
0.00203125,0.00527983251458936
0.002109375,0.00527983251458936
0.0021875,0.00531717353126936
0.002265625,0.00531684861499895
0.00234375,0.00533575818606365
0.002421875,0.00533558820164818
0.0025,0.00535417347024208
0.002578125,0.00535417347024208
0.00265625,0.00537292756672394
0.002734375,0.00537275875828089
0.0028125,0.00537292756672394
0.002890625,0.00537292756672394
0.00296875,0.00537275875828089
0.003046875,0.00535434286463074
0.003125,0.00537292756672394
0.003203125,0.00537311244607637
0.00328125,0.00533575818606365
0.003359375,0.00533558820164818
0.0034375,0.00533575818606365
0.003515625,0.00533594435325782
0.00359375,0.00529858890049801
0.003671875,0.00529858890049801
0.00375,0.00529858890049801
0.003828125,0.00526124732584302
0.00390625,0.0052614197120424
0.003984375,0.00524302462154485
0.0040625,0.0052428351548763
0.004140625,0.00520549188344336
0.00421875,0.00518674856913124
0.004296875,0.00516832169393633
0.004375,0.00516802084766297
0.004453125,0.00516816291614105
0.00453125,0.00513115159090854
0.004609375,0.00513132834765631
0.0046875,0.0051125665724138
0.004765625,0.00507523491773281
0.00484375,0.00507523491773281
0.004921875,0.00505664937273124
0.005,0.00503806384642704
0.005078125,0.00503806384642704
0.00515625,0.00500089285074458
0.005234375,0.00498216001356368
0.0053125,0.00498216001356368
0.005390625,0.00494530244120801
0.00546875,0.00490796570366626
0.005546875,0.00488938033468461
0.005625,0.00488938033468461
0.005703125,0.00487064424419434
0.00578125,0.00485237877532244
0.005859375,0.00481503906798029
0.0059375,0.00479630072617758
0.006015625,0.00477804031116105
0.00609375,0.00475912907025266
0.006171875,0.00475912907025266
0.00625,0.00474054326876833
0.006328125,0.00474087124199745
0.00640625,0.00470323397749672
0.006484375,0.00470323397749672
0.0065625,0.00468494269509902
0.006640625,0.0046663575908362
0.00671875,0.00464777251036565
0.006796875,0.00464794906516282
0.006875,0.00462918745397394
0.006953125,0.00461078040005692
0.00703125,0.00457327188849172
0.007109375,0.00459219611299367
0.0071875,0.0045731302275917
0.007265625,0.0045731302275917
0.00734375,0.00455454403731967
0.007421875,0.0044433382808636
0.0075,0.00455468627629169
0.007578125,0.00451767763792062
0.00765625,0.00442458757119848
0.007734375,0.00449878556014578
0.0078125,0.00438741670702913
0.007890625,0.0044433382808636
0.00796875,0.0044433382808636
0.008046875,0.00448034403216487
0.008125,0.00442458757119848
0.008203125,0.00442458757119848
0.00828125,0.00442458757119848
0.008359375,0.00442444114975533
0.0084375,0.00440616876632933
0.008515625,0.00442458757119848
0.00859375,0.00436883130872778
0.008671875,0.00438741670702913
0.00875,0.00435024593333353
0.008828125,0.00433183007932089
0.00890625,0.00433151101841575
0.008984375,0.00431307525245081
0.0090625,0.00433201951061471
0.009140625,0.00429466091276763
0.00921875,0.00429448994756742
0.009296875,0.00427607637507459
0.009375,0.0042950631569826
0.009453125,0.00425749186830123
0.00953125,0.00427575315377524
0.009609375,0.00425731941046883
0.0096875,0.00423890739285423
0.009765625,0.00423890739285423
0.00984375,0.00425731941046883
0.009921875,0.00422014897239468
0.01,0.00425731941046883
0.010078125,0.00422014897239468
0.01015625,0.00423910097655522
0.010234375,0.00420173853760197
0.0103125,0.00420140959737531
0.010390625,0.00418297863598481
0.01046875,0.00420193383367787
0.010546875,0.00418297863598481
0.010625,0.00416439350675469
0.010703125,0.00418268952377948
0.01078125,0.00418297863598481
0.010859375,0.00414598550025871
0.0109375,0.00414598550025871
0.011015625,0.0041458084039737
0.01109375,0.00414598550025871
0.011171875,0.0041458084039737
0.01125,0.00412722332799915
0.011328125,0.00414565213626315
0.01140625,0.00412722332799915
0.011484375,0.00410848059770386
0.0115625,0.00412740122172255
0.011640625,0.00410848059770386
0.01171875,0.00410848059770386
0.011796875,0.00410848059770386
0.011875,0.00410848059770386
0.011953125,0.00410848059770386
0.01203125,0.00408989485991469
0.012109375,0.00407130914350251
0.0121875,0.00409005325793104
0.012265625,0.00408989485991469
0.01234375,0.004071468264585
0.012421875,0.0040718501298128
0.0125,0.00405272344876143
0.012578125,0.00405306445613599
0.01265625,0.00405306445613599
0.012734375,0.00401589628925216
0.0128125,0.00405288329954076
0.012890625,0.00403429836318945
0.01296875,0.00401571345592944
0.013046875,0.00401541230054425
0.013125,0.00399696649758786
0.013203125,0.00399696649758786
0.01328125,0.00399712857816652
0.013359375,0.00399696649758786
0.0134375,0.00399731226154425
0.013515625,0.00397838089258251
0.01359375,0.00399731226154425
0.013671875,0.00399696649758786
0.01375,0.00399696649758786
0.013828125,0.0039781203383478
0.01390625,0.00397823976115701
0.013984375,0.00395979531080262
0.0140625,0.00397838089258251
0.014140625,0.00397823976115701
0.01421875,0.00395995891279318
0.014296875,0.00394120975257678
0.014375,0.00394120975257678
0.014453125,0.00394137412603295
0.01453125,0.00392248108068175
0.014609375,0.00392297653459378
0.0146875,0.00392297653459378
0.014765625,0.00392262421823978
0.01484375,0.0039040387081328
0.014921875,0.00390389488913115
0.015,0.00388530871563964
0.015078125,0.00386722515795196
0.01515625,0.00388545322260355
0.015234375,0.0038668677620064
0.0153125,0.00388561995473001
0.015390625,0.00384845066923915
0.01546875,0.00375535554272735
0.015546875,0.00375507951343295
0.015625,0.0037179062306973
0.015703125,0.00373677026717437
0.01578125,0.00373662001017276
0.015859375,0.00371803401156202
0.0159375,0.00371803401156202
0.016015625,0.00373638883375591
0.01609375,0.00371803401156202
0.016171875,0.00369959980057553
0.01625,0.00369944803385634
0.016328125,0.00368119060215697
0.01640625,0.00368101461038299
0.016484375,0.00368086207737238
0.0165625,0.00368086207737238
0.016640625,0.00368086207737238
0.01671875,0.00366214641604641
0.016796875,0.00366214641604641
0.016875,0.00368062739885885
0.016953125,0.00364369022936863
0.01703125,0.00366242944951172
0.017109375,0.00364369022936863
0.0171875,0.00364369022936863
0.017265625,0.00364355984124349
0.01734375,0.00364369022936863
0.017421875,0.00364355984124349
0.0175,0.00364369022936863
0.017578125,0.00362525921753675
0.01765625,0.00362510433851499
0.017734375,0.00364355984124349
0.0178125,0.00362510433851499
0.017890625,0.00360638673815396
0.01796875,0.00364369022936863
0.018046875,0.00358780021034932
0.018125,0.0036065184702157
0.018203125,0.00358793262482127
0.01828125,0.00358793262482127
0.018359375,0.00358769186760084
0.0184375,0.00356934680268949
0.018515625,0.00356934680268949
0.01859375,0.00356921369870109
0.018671875,0.00356934680268949
0.01875,0.00356934680268949
0.018828125,0.00356934680268949
0.01890625,0.00356934680268949
0.018984375,0.00356934680268949
0.0190625,0.0035691047917457
0.019140625,0.00356934680268949
0.01921875,0.00356921369870109
0.019296875,0.00355076100418567
0.019375,0.00355091912581244
0.019453125,0.0035691047917457
0.01953125,0.003550517726394
0.019609375,0.003550517726394
0.0196875,0.003550517726394
0.019765625,0.0035320407248941
0.01984375,0.0035135894795617
0.019921875,0.00351374927393826
0.02,0.0035135894795617
0.020078125,0.0034950037542114
0.02015625,0.00351345426325895
0.020234375,0.0034950037542114
0.0203125,0.0034950037542114
0.020390625,0.00347641805402916
0.02046875,0.00349486781882771
0.020546875,0.0034950037542114
0.020625,0.00351374927393826
0.020703125,0.0034947565950355
0.02078125,0.00349486781882771
0.020859375,0.00347628139187634
0.0209375,0.00349486781882771
0.021015625,0.00347628139187634
0.02109375,0.00347657955692012
0.021171875,0.00345769498268672
0.02125,0.00345783237942083
0.021328125,0.00345769498268672
0.02140625,0.00347616957339142
0.021484375,0.00345769498268672
0.0215625,0.00345769498268672
0.021640625,0.00345769498268672
0.02171875,0.003439246730801
0.021796875,0.00343910859154682
0.021875,0.00342066110859329
0.021953125,0.00343910859154682
0.02203125,0.00342066110859329
0.022109375,0.00342066110859329
0.0221875,0.00343910859154682
