t [s],D [m]
0,0.00143128208427321
7.8125e-05,0.00182165545275062
0.00015625,0.00211955048827761
0.000234375,0.00277018510151746
0.0003125,0.00394067275150546
0.000390625,0.00431244434695332
0.00046875,0.00459125551708419
0.000546875,0.00483290948086734
0.000625,0.00507456472128466
0.000703125,0.00524197011135286
0.00078125,0.00539057496311204
0.000859375,0.00553927873489173
0.0009375,0.005650898309697
0.001015625,0.00570654025807631
0.00109375,0.00578089257414245
0.001171875,0.00585524489020859
0.00125,0.00592959720627473
0.001328125,0.0059667733643078
0.00140625,0.00600394952234087
0.001484375,0.00604112568037394
0.0015625,0.00607830183840701
0.001640625,0.00611547799644008
0.00171875,0.00611547799644008
0.001796875,0.00613406607545662
0.001875,0.00615266117413645
0.001953125,0.00615266117413645
0.00203125,0.00615265415447315
0.002109375,0.00615266117413645
0.0021875,0.00615266117413645
0.002265625,0.00615265415447315
0.00234375,0.00615265415447315
0.002421875,0.00615265415447315
0.0025,0.00611548505877606
0.002578125,0.00611548505877606
0.00265625,0.00607830183840701
0.002734375,0.0060597208867172
0.0028125,0.00604113282963087
0.002890625,0.00604112568037394
0.00296875,0.00602254477267992
0.003046875,0.0059481925462552
0.003125,0.00591101643388851
0.003203125,0.00591101643388851
0.00328125,0.00587383296922512
0.003359375,0.00587383296922512
0.0034375,0.00583665681119205
0.003515625,0.00583666421090035
0.00359375,0.00579948065315898
0.003671875,0.00579948065315898
0.00375,0.00576230449512591
0.003828125,0.00576231199031419
0.00390625,0.00572512833709284
0.003984375,0.00572513588095111
0.0040625,0.00568795217905977
0.004140625,0.00568798255165681
0.00421875,0.0056507760210267
0.004296875,0.00565080659344238
0.004375,0.00561360755672967
0.004453125,0.00559501950327369
0.00453125,0.00559504266109956
0.004609375,0.0055764546850062
0.0046875,0.00553925534393501
0.004765625,0.00552069076088458
0.00484375,0.00548351481500605
0.004921875,0.00548351481500605
0.005,0.0054463388720238
0.005078125,0.00542772703004805
0.00515625,0.00539055092689228
0.005234375,0.00539057496311204
0.0053125,0.00535339902763539
0.005390625,0.00533478677359269
0.00546875,0.00533481106106024
0.005546875,0.00531622309527138
0.005625,0.00529761067237249
0.005703125,0.00527908807253775
0.00578125,0.00527908807253775
0.005859375,0.00526045920270595
0.0059375,0.0052976351302771
0.006015625,0.00524191243670896
0.00609375,0.00524187124014623
0.006171875,0.00522325020364639
0.00625,0.00522325847235827
0.006328125,0.00520473680834007
0.00640625,0.00522328327841537
0.006484375,0.00522328327841537
0.0065625,0.00520469531752226
0.006640625,0.00520469531752226
0.00671875,0.0051861073574759
0.006796875,0.0051861073574759
0.006875,0.0051861073574759
0.006953125,0.00514890627569572
0.00703125,0.00516751939828543
0.007109375,0.00516751939828543
0.0071875,0.00516751939828543
0.007265625,0.00516751939828543
0.00734375,0.00514893143996013
0.007421875,0.00513034348250939
0.0075,0.00511173017866702
0.007578125,0.00513034348250939
0.00765625,0.00513034348250939
0.007734375,0.00511173017866702
0.0078125,0.00507455408253216
0.007890625,0.00509316757026991
0.00796875,0.00509316757026991
0.008046875,0.00507455408253216
0.008125,0.00507457961550068
0.008203125,0.00507457961550068
0.00828125,0.00505596603480608
0.008359375,0.00503740370871304
0.0084375,0.0050187813344645
0.008515625,0.00503740370871304
0.00859375,0.0050002018930237
0.008671875,0.0050002018930237
0.00875,0.00501881575671501
0.008828125,0.00498161384623686
0.00890625,0.00500022780566135
0.008984375,0.00498163985556262
0.0090625,0.0049630170974149
0.009140625,0.00498163985556262
0.00921875,0.00494443775339019
0.009296875,0.00496302579969145
0.009375,0.00492584970733583
0.009453125,0.00492584970733583
0.00953125,0.00490726166153118
0.009609375,0.00490726166153118
0.0096875,0.00490726166153118
0.009765625,0.00490726166153118
0.00984375,0.00490726166153118
0.009921875,0.00488867361597909
0.01,0.00485149752564421
0.010078125,0.00485148862331569
0.01015625,0.00487007670233222
0.010234375,0.00485148862331569
0.0103125,0.00483290948086734
0.010390625,0.00481432143635487
0.01046875,0.00483290948086734
0.010546875,0.00481431246528262
0.010625,0.00481431246528262
0.010703125,0.00479573339210986
0.01078125,0.00477717247069052
0.010859375,0.00477713630724955
0.0109375,0.00477714534813546
0.011015625,0.00477714534813546
0.01109375,0.00477713630724955
0.011171875,0.00477713630724955
0.01125,0.00477713630724955
0.011328125,0.00475854822823301
0.01140625,0.00473996014921648
0.011484375,0.00472138121786776
0.0115625,0.00472137207019994
0.011640625,0.00470278399118341
0.01171875,0.00468419591216687
0.011796875,0.00470278399118341
0.011875,0.00470278399118341
0.011953125,0.00466561709015261
0.01203125,0.00466561709015261
0.012109375,0.00466561709015261
0.0121875,0.00466560783315034
0.012265625,0.00464702904816401
0.01234375,0.0046470197541338
0.012421875,0.00462844100647283
0.0125,0.00462844100647283
0.012578125,0.00462844100647283
0.01265625,0.00460988107191416
0.012734375,0.00459129314462032
0.0128125,0.00459129314462032
0.012890625,0.00459126492399714
0.01296875,0.00457270521855999
0.013046875,0.00457270521855999
0.013125,0.00455408884275503
0.013203125,0.00455411729374827
0.01328125,0.00455408884275503
0.013359375,0.00455408884275503
0.0134375,0.0045355293702005
0.013515625,0.00451694144793229
0.01359375,0.00451691276277697
0.013671875,0.0045355293702005
0.01375,0.00451691276277697
0.013828125,0.00451691276277697
0.01390625,0.00449835352695951
0.013984375,0.00449835352695951
0.0140625,0.00447973668409443
0.014140625,0.00449832472327176
0.01421875,0.00447973668409443
0.014296875,0.00446113896396845
0.014375,0.00446122609473796
0.014453125,0.00446117768896499
0.01453125,0.00446117768896499
0.014609375,0.00446117768896499
0.0146875,0.0044240018563492
0.014765625,0.0044240018563492
0.01484375,0.0044240018563492
0.014921875,0.00442397256857115
0.015,0.00440538453074708
0.015078125,0.00438682602924888
0.01515625,0.00438682602924888
0.015234375,0.00438682602924888
0.0153125,0.00436823811781103
0.015390625,0.00434965020780545
0.01546875,0.00434965020780545
0.015546875,0.00434965020780545
0.015625,0.00434965020780545
0.015703125,0.00434965020780545
0.01578125,0.00433103238298662
0.015859375,0.00431244434695332
0.0159375,0.00431247439216522
0.016015625,0.00431247439216522
0.01609375,0.00431244434695332
0.016171875,0.0042938864865684
0.01625,0.00425668024110581
0.016328125,0.00427529858247956
0.01640625,0.00425668024110581
0.016484375,0.00425671067991845
0.0165625,0.00423812277890517
0.016640625,0.00421953487946018
0.01671875,0.00421950417246741
0.016796875,0.00421953487946018
0.016875,0.00421953487946018
0.016953125,0.0041823590853587
0.01703125,0.00416377119074496
0.017109375,0.0041823590853587
0.0171875,0.00414515204000106
0.017265625,0.00414515204000106
0.01734375,0.00414515204000106
0.017421875,0.00412656400791825
0.0175,0.00410797597626018
0.017578125,0.00410797597626018
0.01765625,0.00410797597626018
0.017734375,0.00410797597626018
0.0178125,0.00408938794503264
0.017890625,0.00408937738363774
0.01796875,0.00408938794503264
0.018046875,0.00407079991424153
0.018125,0.00407079991424153
0.018203125,0.00405221188389285
0.01828125,0.00405221188389285
0.018359375,0.00405221188389285
0.0184375,0.00405221188389285
0.018515625,0.00403362385399272
0.01859375,0.00403362385399272
0.018671875,0.00401503582454737
0.01875,0.00401503582454737
0.018828125,0.00403361314658814
0.01890625,0.0040150250675716
0.018984375,0.00399644779556314
0.0190625,0.00399644779556314
0.019140625,0.00399644779556314
0.01921875,0.00397785976704651
0.019296875,0.00397785976704651
0.019375,0.00397785976704651
0.019453125,0.00397785976704651
0.01953125,0.00397784890953853
0.019609375,0.00394068371144247
0.0196875,0.00394068371144247
0.019765625,0.00394068371144247
0.01984375,0.00394068371144247
0.019921875,0.00392208467248893
0.02,0.00392208467248893
0.020078125,0.00392209568436862
0.02015625,0.00392209568436862
0.020234375,0.00392209568436862
0.0203125,0.00392209568436862
0.020390625,0.00392209568436862
0.02046875,0.00390350765778946
0.020546875,0.00388490851445586
0.020625,0.00390349659347239
0.020703125,0.00388490851445586
0.02078125,0.00388491963171209
0.020859375,0.00388490851445586
0.0209375,0.00386632043543932
0.021015625,0.00386633160614375
0.02109375,0.00386633160614375
0.021171875,0.00386632043543932
0.02125,0.0038291555565638
0.021328125,0.00384773235642279
0.02140625,0.00384773235642279
0.021484375,0.00381056753256738
0.0215625,0.00381055619838972
0.021640625,0.00381056753256738
0.02171875,0.00381056753256738
0.021796875,0.00381055619838972
0.021875,0.00379196811937318
0.021953125,0.00379197950911038
0.02203125,0.00379196811937318
0.022109375,0.00379197950911038
0.0221875,0.00379197950911038
0.022265625,0.00379197950911038
0.02234375,0.00377338004035665
0.022421875,0.00377338004035665
0.0225,0.00377339148620075
0.022578125,0.00377339148620075
0.02265625,0.00377339148620075
0.022734375,0.00375479196134011
0.0228125,0.00375479196134011
0.022890625,0.00375479196134011
0.02296875,0.00375479196134011
0.023046875,0.00375479196134011
0.023125,0.00373621544205633
0.023203125,0.00373620388232358
0.02328125,0.00373620388232358
0.023359375,0.00373621544205633
0.0234375,0.00373621544205633
0.023515625,0.00373620388232358
0.02359375,0.00371762742083827
0.023671875,0.00373620388232358
0.02375,0.00371762742083827
0.023828125,0.00371762742083827
0.02390625,0.00371762742083827
0.023984375,0.00371762742083827
0.0240625,0.00371761580330704
0.024140625,0.00369902772429051
0.02421875,0.00368045138015363
0.024296875,0.00368045138015363
0.024375,0.00368043964527397
0.024453125,0.00368043964527397
0.02453125,0.00368043964527397
0.024609375,0.00368045138015363
0.0246875,0.00368045138015363
0.024765625,0.00366185156625743
0.02484375,0.00366185156625743
0.024921875,0.00366186336070482
0.025,0.00366185156625743
0.025078125,0.00366185156625743
0.02515625,0.00366185156625743
0.025234375,0.00366186336070482
0.0253125,0.00364327534186384
0.025390625,0.00364327534186384
0.02546875,0.00364327534186384
0.025546875,0.00364327534186384
0.025625,0.00364327534186384
0.025703125,0.00362468732364005
0.02578125,0.00362467540822436
0.025859375,0.00360608732920783
0.0259375,0.00360609930604298
